r (cm)      	rho (g/cm3) 	T (K)       	u (cm/s)    	L* (erg/s)  			 Edot= 1.492373e+39
9.999458e+05 	8.026816e+04 	1.598557e+09 	1.633076e+00 	6.265137e+38 	
9.999551e+05 	7.944503e+04 	1.595139e+09 	1.649960e+00 	6.265100e+38 	
9.999645e+05 	7.863034e+04 	1.591731e+09 	1.667018e+00 	6.265063e+38 	
9.999738e+05 	7.782400e+04 	1.588332e+09 	1.684253e+00 	6.265026e+38 	
9.999832e+05 	7.702593e+04 	1.584944e+09 	1.701666e+00 	6.264988e+38 	
9.999925e+05 	7.623605e+04 	1.581565e+09 	1.719259e+00 	6.264951e+38 	
1.000002e+06 	7.545426e+04 	1.578196e+09 	1.737035e+00 	6.264913e+38 	
1.000011e+06 	7.468049e+04 	1.574837e+09 	1.754993e+00 	6.264876e+38 	
1.000021e+06 	7.391466e+04 	1.571487e+09 	1.773138e+00 	6.264838e+38 	
1.000030e+06 	7.315668e+04 	1.568147e+09 	1.791470e+00 	6.264800e+38 	
1.000039e+06 	7.240648e+04 	1.564817e+09 	1.809992e+00 	6.264762e+38 	
1.000049e+06 	7.166396e+04 	1.561496e+09 	1.828705e+00 	6.264724e+38 	
1.000058e+06 	7.092906e+04 	1.558185e+09 	1.847612e+00 	6.264686e+38 	
1.000067e+06 	7.020170e+04 	1.554883e+09 	1.866714e+00 	6.264648e+38 	
1.000077e+06 	6.948180e+04 	1.551591e+09 	1.886014e+00 	6.264610e+38 	
1.000086e+06 	6.876928e+04 	1.548308e+09 	1.905513e+00 	6.264571e+38 	
1.000095e+06 	6.806406e+04 	1.545035e+09 	1.925214e+00 	6.264533e+38 	
1.000104e+06 	6.736608e+04 	1.541772e+09 	1.945118e+00 	6.264494e+38 	
1.000114e+06 	6.667526e+04 	1.538518e+09 	1.965229e+00 	6.264456e+38 	
1.000123e+06 	6.599152e+04 	1.535273e+09 	1.985547e+00 	6.264417e+38 	
1.000132e+06 	6.531479e+04 	1.532038e+09 	2.006075e+00 	6.264378e+38 	
1.000142e+06 	6.464500e+04 	1.528812e+09 	2.026816e+00 	6.264339e+38 	
1.000151e+06 	6.398208e+04 	1.525595e+09 	2.047771e+00 	6.264300e+38 	
1.000160e+06 	6.332595e+04 	1.522388e+09 	2.068943e+00 	6.264261e+38 	
1.000170e+06 	6.267656e+04 	1.519190e+09 	2.090333e+00 	6.264222e+38 	
1.000179e+06 	6.203383e+04 	1.516001e+09 	2.111945e+00 	6.264183e+38 	
1.000188e+06 	6.139768e+04 	1.512822e+09 	2.133780e+00 	6.264143e+38 	
1.000197e+06 	6.076806e+04 	1.509652e+09 	2.155841e+00 	6.264104e+38 	
1.000207e+06 	6.014490e+04 	1.506491e+09 	2.178130e+00 	6.264064e+38 	
1.000216e+06 	5.952813e+04 	1.503339e+09 	2.200650e+00 	6.264024e+38 	
1.000225e+06 	5.891768e+04 	1.500196e+09 	2.223402e+00 	6.263985e+38 	
1.000235e+06 	5.831349e+04 	1.497063e+09 	2.246390e+00 	6.263945e+38 	
1.000244e+06 	5.771550e+04 	1.493939e+09 	2.269615e+00 	6.263905e+38 	
1.000253e+06 	5.712364e+04 	1.490823e+09 	2.293081e+00 	6.263865e+38 	
1.000262e+06 	5.653785e+04 	1.487717e+09 	2.316789e+00 	6.263825e+38 	
1.000272e+06 	5.595806e+04 	1.484620e+09 	2.340742e+00 	6.263784e+38 	
1.000281e+06 	5.538422e+04 	1.481532e+09 	2.364943e+00 	6.263744e+38 	
1.000290e+06 	5.481627e+04 	1.478453e+09 	2.389394e+00 	6.263703e+38 	
1.000300e+06 	5.425414e+04 	1.475382e+09 	2.414098e+00 	6.263663e+38 	
1.000309e+06 	5.369778e+04 	1.472321e+09 	2.439057e+00 	6.263622e+38 	
1.000318e+06 	5.314712e+04 	1.469269e+09 	2.464274e+00 	6.263581e+38 	
1.000327e+06 	5.260211e+04 	1.466226e+09 	2.489752e+00 	6.263540e+38 	
1.000337e+06 	5.206268e+04 	1.463191e+09 	2.515494e+00 	6.263499e+38 	
1.000346e+06 	5.152879e+04 	1.460165e+09 	2.541502e+00 	6.263458e+38 	
1.000355e+06 	5.100037e+04 	1.457148e+09 	2.567778e+00 	6.263417e+38 	
1.000364e+06 	5.047738e+04 	1.454140e+09 	2.594326e+00 	6.263376e+38 	
1.000374e+06 	4.995974e+04 	1.451141e+09 	2.621149e+00 	6.263334e+38 	
1.000383e+06 	4.944741e+04 	1.448151e+09 	2.648249e+00 	6.263293e+38 	
1.000392e+06 	4.894034e+04 	1.445169e+09 	2.675629e+00 	6.263251e+38 	
1.000401e+06 	4.843847e+04 	1.442196e+09 	2.703293e+00 	6.263209e+38 	
1.000411e+06 	4.794174e+04 	1.439232e+09 	2.731242e+00 	6.263167e+38 	
1.000420e+06 	4.745011e+04 	1.436277e+09 	2.759480e+00 	6.263125e+38 	
1.000429e+06 	4.696352e+04 	1.433330e+09 	2.788011e+00 	6.263083e+38 	
1.000439e+06 	4.648192e+04 	1.430391e+09 	2.816836e+00 	6.263041e+38 	
1.000448e+06 	4.600526e+04 	1.427462e+09 	2.845959e+00 	6.262999e+38 	
1.000457e+06 	4.553348e+04 	1.424540e+09 	2.875383e+00 	6.262956e+38 	
1.000466e+06 	4.506655e+04 	1.421628e+09 	2.905112e+00 	6.262914e+38 	
1.000476e+06 	4.460440e+04 	1.418724e+09 	2.935148e+00 	6.262871e+38 	
1.000485e+06 	4.414699e+04 	1.415829e+09 	2.965494e+00 	6.262828e+38 	
1.000494e+06 	4.369427e+04 	1.412942e+09 	2.996155e+00 	6.262785e+38 	
1.000503e+06 	4.324620e+04 	1.410063e+09 	3.027132e+00 	6.262742e+38 	
1.000513e+06 	4.280272e+04 	1.407194e+09 	3.058430e+00 	6.262699e+38 	
1.000522e+06 	4.236378e+04 	1.404332e+09 	3.090051e+00 	6.262656e+38 	
1.000531e+06 	4.192935e+04 	1.401479e+09 	3.121999e+00 	6.262612e+38 	
1.000540e+06 	4.149938e+04 	1.398634e+09 	3.154277e+00 	6.262569e+38 	
1.000550e+06 	4.107381e+04 	1.395798e+09 	3.186889e+00 	6.262525e+38 	
1.000559e+06 	4.065260e+04 	1.392970e+09 	3.219838e+00 	6.262481e+38 	
1.000568e+06 	4.023572e+04 	1.390150e+09 	3.253128e+00 	6.262437e+38 	
1.000577e+06 	3.982311e+04 	1.387339e+09 	3.286762e+00 	6.262393e+38 	
1.000587e+06 	3.941473e+04 	1.384536e+09 	3.320744e+00 	6.262349e+38 	
1.000596e+06 	3.901055e+04 	1.381741e+09 	3.355077e+00 	6.262305e+38 	
1.000605e+06 	3.861050e+04 	1.378955e+09 	3.389766e+00 	6.262260e+38 	
1.000615e+06 	3.821456e+04 	1.376177e+09 	3.424812e+00 	6.262216e+38 	
1.000624e+06 	3.782268e+04 	1.373407e+09 	3.460221e+00 	6.262171e+38 	
1.000633e+06 	3.743481e+04 	1.370645e+09 	3.495997e+00 	6.262126e+38 	
1.000642e+06 	3.705093e+04 	1.367891e+09 	3.532142e+00 	6.262081e+38 	
1.000652e+06 	3.667098e+04 	1.365145e+09 	3.568660e+00 	6.262036e+38 	
1.000661e+06 	3.629492e+04 	1.362408e+09 	3.605557e+00 	6.261991e+38 	
1.000670e+06 	3.592273e+04 	1.359679e+09 	3.642835e+00 	6.261945e+38 	
1.000679e+06 	3.555435e+04 	1.356957e+09 	3.680498e+00 	6.261900e+38 	
1.000689e+06 	3.518975e+04 	1.354244e+09 	3.718550e+00 	6.261854e+38 	
1.000698e+06 	3.482888e+04 	1.351539e+09 	3.756996e+00 	6.261809e+38 	
1.000707e+06 	3.447172e+04 	1.348842e+09 	3.795840e+00 	6.261763e+38 	
1.000717e+06 	3.411822e+04 	1.346153e+09 	3.835085e+00 	6.261717e+38 	
1.000726e+06 	3.376834e+04 	1.343472e+09 	3.874736e+00 	6.261670e+38 	
1.000735e+06 	3.342206e+04 	1.340799e+09 	3.914797e+00 	6.261624e+38 	
1.000744e+06 	3.307932e+04 	1.338133e+09 	3.955272e+00 	6.261577e+38 	
1.000754e+06 	3.274010e+04 	1.335476e+09 	3.996165e+00 	6.261531e+38 	
1.000763e+06 	3.240436e+04 	1.332827e+09 	4.037481e+00 	6.261484e+38 	
1.000772e+06 	3.207206e+04 	1.330185e+09 	4.079224e+00 	6.261437e+38 	
1.000782e+06 	3.174316e+04 	1.327552e+09 	4.121399e+00 	6.261390e+38 	
1.000791e+06 	3.141765e+04 	1.324926e+09 	4.164010e+00 	6.261343e+38 	
1.000800e+06 	3.109546e+04 	1.322308e+09 	4.207062e+00 	6.261296e+38 	
1.000809e+06 	3.077659e+04 	1.319698e+09 	4.250558e+00 	6.261248e+38 	
1.000819e+06 	3.046098e+04 	1.317095e+09 	4.294504e+00 	6.261200e+38 	
1.000828e+06 	3.014861e+04 	1.314501e+09 	4.338905e+00 	6.261153e+38 	
1.000837e+06 	2.983944e+04 	1.311914e+09 	4.383765e+00 	6.261105e+38 	
1.000847e+06 	2.953344e+04 	1.309335e+09 	4.429088e+00 	6.261056e+38 	
1.000856e+06 	2.923058e+04 	1.306763e+09 	4.474880e+00 	6.261008e+38 	
1.000865e+06 	2.893083e+04 	1.304200e+09 	4.521145e+00 	6.260960e+38 	
1.000875e+06 	2.863415e+04 	1.301643e+09 	4.567889e+00 	6.260911e+38 	
1.000884e+06 	2.834051e+04 	1.299095e+09 	4.615116e+00 	6.260862e+38 	
1.000893e+06 	2.804989e+04 	1.296554e+09 	4.662831e+00 	6.260814e+38 	
1.000903e+06 	2.776224e+04 	1.294021e+09 	4.711039e+00 	6.260764e+38 	
1.000912e+06 	2.747755e+04 	1.291495e+09 	4.759746e+00 	6.260715e+38 	
1.000921e+06 	2.719577e+04 	1.288977e+09 	4.808957e+00 	6.260666e+38 	
1.000930e+06 	2.691688e+04 	1.286467e+09 	4.858676e+00 	6.260616e+38 	
1.000940e+06 	2.664086e+04 	1.283963e+09 	4.908909e+00 	6.260567e+38 	
1.000949e+06 	2.636766e+04 	1.281468e+09 	4.959662e+00 	6.260517e+38 	
1.000958e+06 	2.609727e+04 	1.278980e+09 	5.010939e+00 	6.260467e+38 	
1.000968e+06 	2.582964e+04 	1.276500e+09 	5.062746e+00 	6.260416e+38 	
1.000977e+06 	2.556477e+04 	1.274027e+09 	5.115089e+00 	6.260366e+38 	
1.000986e+06 	2.530261e+04 	1.271561e+09 	5.167973e+00 	6.260315e+38 	
1.000996e+06 	2.504313e+04 	1.269103e+09 	5.221404e+00 	6.260265e+38 	
1.001005e+06 	2.478632e+04 	1.266652e+09 	5.275387e+00 	6.260214e+38 	
1.001015e+06 	2.453214e+04 	1.264208e+09 	5.329928e+00 	6.260163e+38 	
1.001024e+06 	2.428057e+04 	1.261772e+09 	5.385033e+00 	6.260112e+38 	
1.001033e+06 	2.403158e+04 	1.259344e+09 	5.440708e+00 	6.260060e+38 	
1.001043e+06 	2.378514e+04 	1.256922e+09 	5.496958e+00 	6.260009e+38 	
1.001052e+06 	2.354123e+04 	1.254508e+09 	5.553790e+00 	6.259957e+38 	
1.001061e+06 	2.329982e+04 	1.252101e+09 	5.611209e+00 	6.259905e+38 	
1.001071e+06 	2.306088e+04 	1.249702e+09 	5.669222e+00 	6.259853e+38 	
1.001080e+06 	2.282440e+04 	1.247309e+09 	5.727834e+00 	6.259800e+38 	
1.001090e+06 	2.259034e+04 	1.244924e+09 	5.787053e+00 	6.259748e+38 	
1.001099e+06 	2.235868e+04 	1.242546e+09 	5.846884e+00 	6.259695e+38 	
1.001108e+06 	2.212940e+04 	1.240176e+09 	5.907333e+00 	6.259642e+38 	
1.001118e+06 	2.190246e+04 	1.237812e+09 	5.968407e+00 	6.259589e+38 	
1.001127e+06 	2.167786e+04 	1.235456e+09 	6.030113e+00 	6.259536e+38 	
1.001136e+06 	2.145556e+04 	1.233106e+09 	6.092456e+00 	6.259483e+38 	
1.001146e+06 	2.123554e+04 	1.230764e+09 	6.155444e+00 	6.259429e+38 	
1.001155e+06 	2.101777e+04 	1.228429e+09 	6.219083e+00 	6.259375e+38 	
1.001165e+06 	2.080224e+04 	1.226102e+09 	6.283380e+00 	6.259321e+38 	
1.001174e+06 	2.058891e+04 	1.223781e+09 	6.348342e+00 	6.259267e+38 	
1.001184e+06 	2.037778e+04 	1.221467e+09 	6.413975e+00 	6.259212e+38 	
1.001193e+06 	2.016881e+04 	1.219160e+09 	6.480287e+00 	6.259158e+38 	
1.001202e+06 	1.996198e+04 	1.216860e+09 	6.547284e+00 	6.259103e+38 	
1.001212e+06 	1.975728e+04 	1.214567e+09 	6.614974e+00 	6.259048e+38 	
1.001221e+06 	1.955467e+04 	1.212282e+09 	6.683363e+00 	6.258993e+38 	
1.001231e+06 	1.935414e+04 	1.210003e+09 	6.752460e+00 	6.258937e+38 	
1.001240e+06 	1.915567e+04 	1.207731e+09 	6.822271e+00 	6.258882e+38 	
1.001250e+06 	1.895923e+04 	1.205466e+09 	6.892803e+00 	6.258826e+38 	
1.001259e+06 	1.876481e+04 	1.203208e+09 	6.964065e+00 	6.258770e+38 	
1.001269e+06 	1.857238e+04 	1.200957e+09 	7.036063e+00 	6.258714e+38 	
1.001278e+06 	1.838192e+04 	1.198712e+09 	7.108805e+00 	6.258657e+38 	
1.001288e+06 	1.819342e+04 	1.196475e+09 	7.182300e+00 	6.258601e+38 	
1.001297e+06 	1.800685e+04 	1.194244e+09 	7.256554e+00 	6.258544e+38 	
1.001307e+06 	1.782219e+04 	1.192020e+09 	7.331576e+00 	6.258487e+38 	
1.001316e+06 	1.763943e+04 	1.189803e+09 	7.407373e+00 	6.258429e+38 	
1.001326e+06 	1.745854e+04 	1.187593e+09 	7.483954e+00 	6.258372e+38 	
1.001335e+06 	1.727951e+04 	1.185389e+09 	7.561326e+00 	6.258314e+38 	
1.001345e+06 	1.710231e+04 	1.183193e+09 	7.639499e+00 	6.258256e+38 	
1.001354e+06 	1.692693e+04 	1.181003e+09 	7.718479e+00 	6.258198e+38 	
1.001364e+06 	1.675335e+04 	1.178819e+09 	7.798276e+00 	6.258140e+38 	
1.001373e+06 	1.658155e+04 	1.176643e+09 	7.878897e+00 	6.258081e+38 	
1.001383e+06 	1.641151e+04 	1.174473e+09 	7.960353e+00 	6.258022e+38 	
1.001392e+06 	1.624321e+04 	1.172309e+09 	8.042650e+00 	6.257963e+38 	
1.001402e+06 	1.607664e+04 	1.170153e+09 	8.125797e+00 	6.257904e+38 	
1.001411e+06 	1.591178e+04 	1.168003e+09 	8.209805e+00 	6.257844e+38 	
1.001421e+06 	1.574861e+04 	1.165859e+09 	8.294680e+00 	6.257785e+38 	
1.001430e+06 	1.558711e+04 	1.163722e+09 	8.380433e+00 	6.257725e+38 	
1.001440e+06 	1.542726e+04 	1.161592e+09 	8.467072e+00 	6.257664e+38 	
1.001450e+06 	1.526906e+04 	1.159468e+09 	8.554607e+00 	6.257604e+38 	
1.001459e+06 	1.511248e+04 	1.157351e+09 	8.643047e+00 	6.257543e+38 	
1.001469e+06 	1.495751e+04 	1.155240e+09 	8.732401e+00 	6.257482e+38 	
1.001478e+06 	1.480412e+04 	1.153136e+09 	8.822679e+00 	6.257421e+38 	
1.001488e+06 	1.465231e+04 	1.151039e+09 	8.913889e+00 	6.257360e+38 	
1.001498e+06 	1.450205e+04 	1.148947e+09 	9.006043e+00 	6.257298e+38 	
1.001507e+06 	1.435333e+04 	1.146863e+09 	9.099149e+00 	6.257236e+38 	
1.001517e+06 	1.420614e+04 	1.144784e+09 	9.193218e+00 	6.257174e+38 	
1.001526e+06 	1.406046e+04 	1.142712e+09 	9.288259e+00 	6.257112e+38 	
1.001536e+06 	1.391628e+04 	1.140647e+09 	9.384282e+00 	6.257049e+38 	
1.001546e+06 	1.377357e+04 	1.138588e+09 	9.481298e+00 	6.256986e+38 	
1.001555e+06 	1.363232e+04 	1.136535e+09 	9.579316e+00 	6.256923e+38 	
1.001565e+06 	1.349253e+04 	1.134489e+09 	9.678348e+00 	6.256859e+38 	
1.001575e+06 	1.335416e+04 	1.132449e+09 	9.778403e+00 	6.256796e+38 	
1.001584e+06 	1.321722e+04 	1.130415e+09 	9.879493e+00 	6.256732e+38 	
1.001594e+06 	1.308168e+04 	1.128388e+09 	9.981627e+00 	6.256667e+38 	
1.001604e+06 	1.294753e+04 	1.126367e+09 	1.008482e+01 	6.256603e+38 	
1.001613e+06 	1.281476e+04 	1.124352e+09 	1.018907e+01 	6.256538e+38 	
1.001623e+06 	1.268334e+04 	1.122343e+09 	1.029441e+01 	6.256473e+38 	
1.001633e+06 	1.255328e+04 	1.120341e+09 	1.040083e+01 	6.256408e+38 	
1.001643e+06 	1.242455e+04 	1.118344e+09 	1.050836e+01 	6.256342e+38 	
1.001652e+06 	1.229714e+04 	1.116355e+09 	1.061699e+01 	6.256276e+38 	
1.001662e+06 	1.217103e+04 	1.114371e+09 	1.072675e+01 	6.256210e+38 	
1.001672e+06 	1.204622e+04 	1.112393e+09 	1.083764e+01 	6.256144e+38 	
1.001682e+06 	1.192269e+04 	1.110422e+09 	1.094968e+01 	6.256077e+38 	
1.001691e+06 	1.180042e+04 	1.108457e+09 	1.106287e+01 	6.256010e+38 	
1.001701e+06 	1.167941e+04 	1.106498e+09 	1.117724e+01 	6.255943e+38 	
1.001711e+06 	1.155964e+04 	1.104545e+09 	1.129279e+01 	6.255876e+38 	
1.001721e+06 	1.144110e+04 	1.102598e+09 	1.140953e+01 	6.255808e+38 	
1.001731e+06 	1.132378e+04 	1.100657e+09 	1.152748e+01 	6.255740e+38 	
1.001740e+06 	1.120765e+04 	1.098722e+09 	1.164665e+01 	6.255671e+38 	
1.001750e+06 	1.109272e+04 	1.096793e+09 	1.176705e+01 	6.255603e+38 	
1.001760e+06 	1.097897e+04 	1.094870e+09 	1.188869e+01 	6.255534e+38 	
1.001770e+06 	1.086638e+04 	1.092954e+09 	1.201159e+01 	6.255464e+38 	
1.001780e+06 	1.075495e+04 	1.091043e+09 	1.213576e+01 	6.255395e+38 	
1.001790e+06 	1.064466e+04 	1.089138e+09 	1.226122e+01 	6.255325e+38 	
1.001799e+06 	1.053550e+04 	1.087239e+09 	1.238797e+01 	6.255255e+38 	
1.001809e+06 	1.042746e+04 	1.085347e+09 	1.251603e+01 	6.255184e+38 	
1.001819e+06 	1.032053e+04 	1.083460e+09 	1.264542e+01 	6.255113e+38 	
1.001829e+06 	1.021469e+04 	1.081579e+09 	1.277614e+01 	6.255042e+38 	
1.001839e+06 	1.010994e+04 	1.079703e+09 	1.290821e+01 	6.254971e+38 	
1.001849e+06 	1.000627e+04 	1.077834e+09 	1.304165e+01 	6.254899e+38 	
1.001859e+06 	9.903656e+03 	1.075971e+09 	1.317647e+01 	6.254827e+38 	
1.001869e+06 	9.802097e+03 	1.074113e+09 	1.331268e+01 	6.254755e+38 	
1.001879e+06 	9.701578e+03 	1.072262e+09 	1.345030e+01 	6.254682e+38 	
1.001889e+06 	9.602091e+03 	1.070416e+09 	1.358934e+01 	6.254609e+38 	
1.001899e+06 	9.503623e+03 	1.068576e+09 	1.372982e+01 	6.254536e+38 	
1.001909e+06 	9.406166e+03 	1.066742e+09 	1.387175e+01 	6.254462e+38 	
1.001919e+06 	9.309707e+03 	1.064913e+09 	1.401515e+01 	6.254388e+38 	
1.001929e+06 	9.214238e+03 	1.063091e+09 	1.416002e+01 	6.254314e+38 	
1.001939e+06 	9.119748e+03 	1.061273e+09 	1.430640e+01 	6.254239e+38 	
1.001949e+06 	9.026227e+03 	1.059462e+09 	1.445429e+01 	6.254164e+38 	
1.001959e+06 	8.933665e+03 	1.057657e+09 	1.460371e+01 	6.254089e+38 	
1.001969e+06 	8.842052e+03 	1.055857e+09 	1.475467e+01 	6.254013e+38 	
1.001979e+06 	8.751379e+03 	1.054063e+09 	1.490719e+01 	6.253937e+38 	
1.001989e+06 	8.661635e+03 	1.052274e+09 	1.506129e+01 	6.253860e+38 	
1.001999e+06 	8.572812e+03 	1.050492e+09 	1.521698e+01 	6.253784e+38 	
1.002009e+06 	8.484900e+03 	1.048714e+09 	1.537428e+01 	6.253707e+38 	
1.002019e+06 	8.397889e+03 	1.046943e+09 	1.553320e+01 	6.253629e+38 	
1.002029e+06 	8.311770e+03 	1.045177e+09 	1.569377e+01 	6.253551e+38 	
1.002039e+06 	8.226535e+03 	1.043416e+09 	1.585600e+01 	6.253473e+38 	
1.002049e+06 	8.142174e+03 	1.041662e+09 	1.601990e+01 	6.253395e+38 	
1.002059e+06 	8.058677e+03 	1.039912e+09 	1.618550e+01 	6.253316e+38 	
1.002070e+06 	7.976037e+03 	1.038169e+09 	1.635281e+01 	6.253237e+38 	
1.002080e+06 	7.894245e+03 	1.036431e+09 	1.652184e+01 	6.253157e+38 	
1.002090e+06 	7.813291e+03 	1.034698e+09 	1.669263e+01 	6.253077e+38 	
1.002100e+06 	7.733167e+03 	1.032971e+09 	1.686518e+01 	6.252997e+38 	
1.002110e+06 	7.653865e+03 	1.031249e+09 	1.703951e+01 	6.252916e+38 	
1.002120e+06 	7.575377e+03 	1.029533e+09 	1.721564e+01 	6.252835e+38 	
1.002131e+06 	7.497693e+03 	1.027822e+09 	1.739360e+01 	6.252753e+38 	
1.002141e+06 	7.420806e+03 	1.026117e+09 	1.757339e+01 	6.252671e+38 	
1.002151e+06 	7.344707e+03 	1.024417e+09 	1.775504e+01 	6.252589e+38 	
1.002161e+06 	7.269388e+03 	1.022722e+09 	1.793857e+01 	6.252506e+38 	
1.002172e+06 	7.194842e+03 	1.021033e+09 	1.812400e+01 	6.252423e+38 	
1.002182e+06 	7.121061e+03 	1.019350e+09 	1.831134e+01 	6.252340e+38 	
1.002192e+06 	7.048036e+03 	1.017671e+09 	1.850061e+01 	6.252256e+38 	
1.002203e+06 	6.975760e+03 	1.015998e+09 	1.869185e+01 	6.252171e+38 	
1.002213e+06 	6.904225e+03 	1.014331e+09 	1.888505e+01 	6.252087e+38 	
1.002223e+06 	6.833423e+03 	1.012668e+09 	1.908026e+01 	6.252002e+38 	
1.002234e+06 	6.763348e+03 	1.011011e+09 	1.927748e+01 	6.251916e+38 	
1.002244e+06 	6.693991e+03 	1.009360e+09 	1.947674e+01 	6.251830e+38 	
1.002254e+06 	6.625346e+03 	1.007713e+09 	1.967806e+01 	6.251744e+38 	
1.002265e+06 	6.557404e+03 	1.006072e+09 	1.988146e+01 	6.251657e+38 	
1.002275e+06 	6.490160e+03 	1.004436e+09 	2.008696e+01 	6.251570e+38 	
1.002286e+06 	6.423604e+03 	1.002805e+09 	2.029459e+01 	6.251482e+38 	
1.002296e+06 	6.357732e+03 	1.001180e+09 	2.050436e+01 	6.251394e+38 	
1.002307e+06 	6.292535e+03 	9.995593e+08 	2.071630e+01 	6.251306e+38 	
1.002317e+06 	6.228006e+03 	9.979442e+08 	2.093042e+01 	6.251217e+38 	
1.002327e+06 	6.164139e+03 	9.963342e+08 	2.114676e+01 	6.251128e+38 	
1.002338e+06 	6.100927e+03 	9.947294e+08 	2.136534e+01 	6.251038e+38 	
1.002348e+06 	6.038364e+03 	9.931297e+08 	2.158618e+01 	6.250947e+38 	
1.002359e+06 	5.976441e+03 	9.915352e+08 	2.180929e+01 	6.250857e+38 	
1.002370e+06 	5.915154e+03 	9.899457e+08 	2.203471e+01 	6.250766e+38 	
1.002380e+06 	5.854496e+03 	9.883613e+08 	2.226246e+01 	6.250674e+38 	
1.002391e+06 	5.794459e+03 	9.867820e+08 	2.249257e+01 	6.250582e+38 	
1.002401e+06 	5.735038e+03 	9.852078e+08 	2.272505e+01 	6.250489e+38 	
1.002412e+06 	5.676226e+03 	9.836388e+08 	2.295993e+01 	6.250396e+38 	
1.002422e+06 	5.618018e+03 	9.820747e+08 	2.319724e+01 	6.250303e+38 	
1.002433e+06 	5.560406e+03 	9.805157e+08 	2.343701e+01 	6.250209e+38 	
1.002444e+06 	5.503386e+03 	9.789616e+08 	2.367925e+01 	6.250115e+38 	
1.002454e+06 	5.446950e+03 	9.774126e+08 	2.392399e+01 	6.250020e+38 	
1.002465e+06 	5.391092e+03 	9.758685e+08 	2.417126e+01 	6.249924e+38 	
1.002476e+06 	5.335808e+03 	9.743294e+08 	2.442109e+01 	6.249829e+38 	
1.002486e+06 	5.281090e+03 	9.727952e+08 	2.467349e+01 	6.249732e+38 	
1.002497e+06 	5.226934e+03 	9.712659e+08 	2.492851e+01 	6.249635e+38 	
1.002508e+06 	5.173333e+03 	9.697416e+08 	2.518616e+01 	6.249538e+38 	
1.002519e+06 	5.120281e+03 	9.682222e+08 	2.544647e+01 	6.249440e+38 	
1.002529e+06 	5.067774e+03 	9.667077e+08 	2.570947e+01 	6.249342e+38 	
1.002540e+06 	5.015805e+03 	9.651982e+08 	2.597519e+01 	6.249243e+38 	
1.002551e+06 	4.964369e+03 	9.636935e+08 	2.624365e+01 	6.249144e+38 	
1.002562e+06 	4.913460e+03 	9.621936e+08 	2.651489e+01 	6.249044e+38 	
1.002573e+06 	4.863074e+03 	9.606986e+08 	2.678893e+01 	6.248944e+38 	
1.002584e+06 	4.813204e+03 	9.592084e+08 	2.706580e+01 	6.248843e+38 	
1.002594e+06 	4.763846e+03 	9.577229e+08 	2.734554e+01 	6.248741e+38 	
1.002605e+06 	4.714993e+03 	9.562423e+08 	2.762816e+01 	6.248639e+38 	
1.002616e+06 	4.666642e+03 	9.547664e+08 	2.791370e+01 	6.248537e+38 	
1.002627e+06 	4.618787e+03 	9.532953e+08 	2.820219e+01 	6.248434e+38 	
1.002638e+06 	4.571422e+03 	9.518290e+08 	2.849366e+01 	6.248330e+38 	
1.002649e+06 	4.524543e+03 	9.503675e+08 	2.878814e+01 	6.248226e+38 	
