r (cm)      	rho (g/cm3) 	T (K)       	u (cm/s)    	L* (erg/s)  			 Edot= 1.630422e+39
1.200000e+06 	6.208872e+04 	1.429598e+09 	1.555182e+00 	6.030879e+38 	
1.200013e+06 	6.145681e+04 	1.426480e+09 	1.571134e+00 	6.030844e+38 	
1.200026e+06 	6.083133e+04 	1.423370e+09 	1.587250e+00 	6.030808e+38 	
1.200039e+06 	6.021222e+04 	1.420269e+09 	1.603531e+00 	6.030773e+38 	
1.200052e+06 	5.959941e+04 	1.417177e+09 	1.619979e+00 	6.030737e+38 	
1.200065e+06 	5.899283e+04 	1.414094e+09 	1.636595e+00 	6.030702e+38 	
1.200078e+06 	5.839243e+04 	1.411019e+09 	1.653383e+00 	6.030666e+38 	
1.200091e+06 	5.779814e+04 	1.407953e+09 	1.670342e+00 	6.030631e+38 	
1.200103e+06 	5.720990e+04 	1.404895e+09 	1.687476e+00 	6.030595e+38 	
1.200116e+06 	5.662764e+04 	1.401846e+09 	1.704785e+00 	6.030559e+38 	
1.200129e+06 	5.605131e+04 	1.398806e+09 	1.722272e+00 	6.030523e+38 	
1.200142e+06 	5.548085e+04 	1.395774e+09 	1.739938e+00 	6.030487e+38 	
1.200155e+06 	5.491619e+04 	1.392751e+09 	1.757785e+00 	6.030451e+38 	
1.200168e+06 	5.435728e+04 	1.389737e+09 	1.775816e+00 	6.030415e+38 	
1.200181e+06 	5.380406e+04 	1.386731e+09 	1.794031e+00 	6.030379e+38 	
1.200194e+06 	5.325646e+04 	1.383733e+09 	1.812433e+00 	6.030343e+38 	
1.200207e+06 	5.271444e+04 	1.380744e+09 	1.831024e+00 	6.030307e+38 	
1.200220e+06 	5.217794e+04 	1.377763e+09 	1.849806e+00 	6.030270e+38 	
1.200233e+06 	5.164690e+04 	1.374791e+09 	1.868781e+00 	6.030234e+38 	
1.200246e+06 	5.112126e+04 	1.371827e+09 	1.887950e+00 	6.030197e+38 	
1.200259e+06 	5.060097e+04 	1.368872e+09 	1.907316e+00 	6.030161e+38 	
1.200272e+06 	5.008598e+04 	1.365925e+09 	1.926880e+00 	6.030124e+38 	
1.200285e+06 	4.957623e+04 	1.362986e+09 	1.946645e+00 	6.030087e+38 	
1.200297e+06 	4.907166e+04 	1.360056e+09 	1.966613e+00 	6.030051e+38 	
1.200310e+06 	4.857224e+04 	1.357134e+09 	1.986786e+00 	6.030014e+38 	
1.200323e+06 	4.807789e+04 	1.354220e+09 	2.007166e+00 	6.029977e+38 	
1.200336e+06 	4.758858e+04 	1.351314e+09 	2.027754e+00 	6.029940e+38 	
1.200349e+06 	4.710424e+04 	1.348417e+09 	2.048554e+00 	6.029903e+38 	
1.200362e+06 	4.662484e+04 	1.345527e+09 	2.069568e+00 	6.029866e+38 	
1.200375e+06 	4.615031e+04 	1.342646e+09 	2.090797e+00 	6.029828e+38 	
1.200388e+06 	4.568061e+04 	1.339774e+09 	2.112243e+00 	6.029791e+38 	
1.200400e+06 	4.521570e+04 	1.336909e+09 	2.133910e+00 	6.029754e+38 	
1.200413e+06 	4.475551e+04 	1.334053e+09 	2.155799e+00 	6.029716e+38 	
1.200426e+06 	4.430001e+04 	1.331204e+09 	2.177912e+00 	6.029679e+38 	
1.200439e+06 	4.384915e+04 	1.328364e+09 	2.200253e+00 	6.029641e+38 	
1.200452e+06 	4.340287e+04 	1.325532e+09 	2.222822e+00 	6.029603e+38 	
1.200465e+06 	4.296114e+04 	1.322707e+09 	2.245623e+00 	6.029565e+38 	
1.200478e+06 	4.252390e+04 	1.319891e+09 	2.268658e+00 	6.029527e+38 	
1.200490e+06 	4.209111e+04 	1.317083e+09 	2.291929e+00 	6.029490e+38 	
1.200503e+06 	4.166273e+04 	1.314283e+09 	2.315439e+00 	6.029451e+38 	
1.200516e+06 	4.123870e+04 	1.311490e+09 	2.339191e+00 	6.029413e+38 	
1.200529e+06 	4.081900e+04 	1.308706e+09 	2.363185e+00 	6.029375e+38 	
1.200542e+06 	4.040356e+04 	1.305930e+09 	2.387426e+00 	6.029337e+38 	
1.200554e+06 	3.999235e+04 	1.303161e+09 	2.411916e+00 	6.029298e+38 	
1.200567e+06 	3.958533e+04 	1.300401e+09 	2.436657e+00 	6.029260e+38 	
1.200580e+06 	3.918245e+04 	1.297648e+09 	2.461652e+00 	6.029221e+38 	
1.200593e+06 	3.878367e+04 	1.294903e+09 	2.486903e+00 	6.029183e+38 	
1.200606e+06 	3.838894e+04 	1.292166e+09 	2.512413e+00 	6.029144e+38 	
1.200618e+06 	3.799824e+04 	1.289437e+09 	2.538184e+00 	6.029105e+38 	
1.200631e+06 	3.761151e+04 	1.286715e+09 	2.564221e+00 	6.029066e+38 	
1.200644e+06 	3.722872e+04 	1.284002e+09 	2.590524e+00 	6.029027e+38 	
1.200657e+06 	3.684982e+04 	1.281296e+09 	2.617097e+00 	6.028988e+38 	
1.200670e+06 	3.647478e+04 	1.278598e+09 	2.643943e+00 	6.028949e+38 	
1.200682e+06 	3.610356e+04 	1.275907e+09 	2.671064e+00 	6.028910e+38 	
1.200695e+06 	3.573611e+04 	1.273224e+09 	2.698463e+00 	6.028871e+38 	
1.200708e+06 	3.537241e+04 	1.270549e+09 	2.726143e+00 	6.028831e+38 	
1.200721e+06 	3.501240e+04 	1.267882e+09 	2.754108e+00 	6.028792e+38 	
1.200734e+06 	3.465606e+04 	1.265222e+09 	2.782359e+00 	6.028752e+38 	
1.200746e+06 	3.430335e+04 	1.262569e+09 	2.810900e+00 	6.028712e+38 	
1.200759e+06 	3.395423e+04 	1.259925e+09 	2.839734e+00 	6.028673e+38 	
1.200772e+06 	3.360866e+04 	1.257288e+09 	2.868863e+00 	6.028633e+38 	
1.200785e+06 	3.326660e+04 	1.254658e+09 	2.898292e+00 	6.028593e+38 	
1.200797e+06 	3.292803e+04 	1.252036e+09 	2.928022e+00 	6.028553e+38 	
1.200810e+06 	3.259290e+04 	1.249422e+09 	2.958057e+00 	6.028512e+38 	
1.200823e+06 	3.226119e+04 	1.246815e+09 	2.988400e+00 	6.028472e+38 	
1.200836e+06 	3.193285e+04 	1.244215e+09 	3.019055e+00 	6.028432e+38 	
1.200848e+06 	3.160785e+04 	1.241623e+09 	3.050024e+00 	6.028391e+38 	
1.200861e+06 	3.128616e+04 	1.239038e+09 	3.081311e+00 	6.028351e+38 	
1.200874e+06 	3.096775e+04 	1.236461e+09 	3.112918e+00 	6.028310e+38 	
1.200887e+06 	3.065257e+04 	1.233891e+09 	3.144850e+00 	6.028269e+38 	
1.200900e+06 	3.034060e+04 	1.231329e+09 	3.177110e+00 	6.028228e+38 	
1.200912e+06 	3.003181e+04 	1.228774e+09 	3.209700e+00 	6.028187e+38 	
1.200925e+06 	2.972616e+04 	1.226226e+09 	3.242625e+00 	6.028146e+38 	
1.200938e+06 	2.942362e+04 	1.223686e+09 	3.275888e+00 	6.028105e+38 	
1.200951e+06 	2.912416e+04 	1.221153e+09 	3.309491e+00 	6.028064e+38 	
1.200963e+06 	2.882775e+04 	1.218627e+09 	3.343440e+00 	6.028022e+38 	
1.200976e+06 	2.853435e+04 	1.216108e+09 	3.377736e+00 	6.027981e+38 	
1.200989e+06 	2.824395e+04 	1.213597e+09 	3.412385e+00 	6.027939e+38 	
1.201002e+06 	2.795649e+04 	1.211093e+09 	3.447389e+00 	6.027898e+38 	
1.201014e+06 	2.767196e+04 	1.208596e+09 	3.482752e+00 	6.027856e+38 	
1.201027e+06 	2.739033e+04 	1.206106e+09 	3.518477e+00 	6.027814e+38 	
1.201040e+06 	2.711157e+04 	1.203624e+09 	3.554570e+00 	6.027772e+38 	
1.201052e+06 	2.683564e+04 	1.201149e+09 	3.591032e+00 	6.027730e+38 	
1.201065e+06 	2.656252e+04 	1.198680e+09 	3.627868e+00 	6.027687e+38 	
1.201078e+06 	2.629217e+04 	1.196219e+09 	3.665083e+00 	6.027645e+38 	
1.201091e+06 	2.602459e+04 	1.193766e+09 	3.702679e+00 	6.027603e+38 	
1.201103e+06 	2.575972e+04 	1.191319e+09 	3.740661e+00 	6.027560e+38 	
1.201116e+06 	2.549755e+04 	1.188879e+09 	3.779032e+00 	6.027517e+38 	
1.201129e+06 	2.523805e+04 	1.186446e+09 	3.817797e+00 	6.027475e+38 	
1.201142e+06 	2.498119e+04 	1.184020e+09 	3.856960e+00 	6.027432e+38 	
1.201154e+06 	2.472694e+04 	1.181602e+09 	3.896524e+00 	6.027389e+38 	
1.201167e+06 	2.447528e+04 	1.179190e+09 	3.936494e+00 	6.027346e+38 	
1.201180e+06 	2.422618e+04 	1.176786e+09 	3.976874e+00 	6.027302e+38 	
1.201193e+06 	2.397962e+04 	1.174388e+09 	4.017669e+00 	6.027259e+38 	
1.201205e+06 	2.373557e+04 	1.171997e+09 	4.058882e+00 	6.027215e+38 	
1.201218e+06 	2.349400e+04 	1.169613e+09 	4.100517e+00 	6.027172e+38 	
1.201231e+06 	2.325489e+04 	1.167236e+09 	4.142580e+00 	6.027128e+38 	
1.201244e+06 	2.301821e+04 	1.164866e+09 	4.185074e+00 	6.027084e+38 	
1.201256e+06 	2.278394e+04 	1.162503e+09 	4.228004e+00 	6.027040e+38 	
1.201269e+06 	2.255205e+04 	1.160147e+09 	4.271375e+00 	6.026996e+38 	
1.201282e+06 	2.232253e+04 	1.157797e+09 	4.315190e+00 	6.026952e+38 	
1.201295e+06 	2.209534e+04 	1.155455e+09 	4.359455e+00 	6.026908e+38 	
1.201307e+06 	2.187047e+04 	1.153119e+09 	4.404174e+00 	6.026863e+38 	
1.201320e+06 	2.164788e+04 	1.150790e+09 	4.449351e+00 	6.026819e+38 	
1.201333e+06 	2.142756e+04 	1.148468e+09 	4.494992e+00 	6.026774e+38 	
1.201346e+06 	2.120948e+04 	1.146152e+09 	4.541102e+00 	6.026729e+38 	
1.201358e+06 	2.099362e+04 	1.143844e+09 	4.587684e+00 	6.026684e+38 	
1.201371e+06 	2.077995e+04 	1.141542e+09 	4.634744e+00 	6.026639e+38 	
1.201384e+06 	2.056846e+04 	1.139246e+09 	4.682286e+00 	6.026594e+38 	
1.201397e+06 	2.035913e+04 	1.136958e+09 	4.730317e+00 	6.026548e+38 	
1.201409e+06 	2.015192e+04 	1.134676e+09 	4.778840e+00 	6.026503e+38 	
1.201422e+06 	1.994683e+04 	1.132400e+09 	4.827860e+00 	6.026457e+38 	
1.201435e+06 	1.974382e+04 	1.130132e+09 	4.877384e+00 	6.026411e+38 	
1.201448e+06 	1.954287e+04 	1.127870e+09 	4.927416e+00 	6.026366e+38 	
1.201460e+06 	1.934398e+04 	1.125615e+09 	4.977960e+00 	6.026320e+38 	
1.201473e+06 	1.914710e+04 	1.123366e+09 	5.029024e+00 	6.026273e+38 	
1.201486e+06 	1.895223e+04 	1.121124e+09 	5.080611e+00 	6.026227e+38 	
1.201499e+06 	1.875934e+04 	1.118888e+09 	5.132727e+00 	6.026181e+38 	
1.201512e+06 	1.856842e+04 	1.116659e+09 	5.185378e+00 	6.026134e+38 	
1.201524e+06 	1.837944e+04 	1.114436e+09 	5.238569e+00 	6.026087e+38 	
1.201537e+06 	1.819238e+04 	1.112220e+09 	5.292305e+00 	6.026041e+38 	
1.201550e+06 	1.800723e+04 	1.110010e+09 	5.346593e+00 	6.025994e+38 	
1.201563e+06 	1.782396e+04 	1.107807e+09 	5.401437e+00 	6.025947e+38 	
1.201575e+06 	1.764256e+04 	1.105611e+09 	5.456844e+00 	6.025899e+38 	
1.201588e+06 	1.746300e+04 	1.103420e+09 	5.512820e+00 	6.025852e+38 	
1.201601e+06 	1.728527e+04 	1.101237e+09 	5.569369e+00 	6.025804e+38 	
1.201614e+06 	1.710935e+04 	1.099059e+09 	5.626499e+00 	6.025757e+38 	
1.201627e+06 	1.693521e+04 	1.096888e+09 	5.684214e+00 	6.025709e+38 	
1.201639e+06 	1.676286e+04 	1.094724e+09 	5.742522e+00 	6.025661e+38 	
1.201652e+06 	1.659225e+04 	1.092565e+09 	5.801428e+00 	6.025613e+38 	
1.201665e+06 	1.642338e+04 	1.090413e+09 	5.860937e+00 	6.025564e+38 	
1.201678e+06 	1.625623e+04 	1.088268e+09 	5.921058e+00 	6.025516e+38 	
1.201691e+06 	1.609079e+04 	1.086129e+09 	5.981795e+00 	6.025467e+38 	
1.201703e+06 	1.592702e+04 	1.083996e+09 	6.043155e+00 	6.025419e+38 	
1.201716e+06 	1.576492e+04 	1.081869e+09 	6.105144e+00 	6.025370e+38 	
1.201729e+06 	1.560448e+04 	1.079749e+09 	6.167769e+00 	6.025321e+38 	
1.201742e+06 	1.544566e+04 	1.077634e+09 	6.231036e+00 	6.025272e+38 	
1.201755e+06 	1.528846e+04 	1.075527e+09 	6.294953e+00 	6.025222e+38 	
1.201768e+06 	1.513286e+04 	1.073425e+09 	6.359525e+00 	6.025173e+38 	
1.201780e+06 	1.497885e+04 	1.071329e+09 	6.424759e+00 	6.025123e+38 	
1.201793e+06 	1.482640e+04 	1.069240e+09 	6.490663e+00 	6.025073e+38 	
1.201806e+06 	1.467550e+04 	1.067157e+09 	6.557242e+00 	6.025023e+38 	
1.201819e+06 	1.452614e+04 	1.065080e+09 	6.624504e+00 	6.024973e+38 	
1.201832e+06 	1.437830e+04 	1.063009e+09 	6.692457e+00 	6.024923e+38 	
1.201845e+06 	1.423197e+04 	1.060944e+09 	6.761106e+00 	6.024872e+38 	
1.201858e+06 	1.408712e+04 	1.058886e+09 	6.830459e+00 	6.024822e+38 	
1.201870e+06 	1.394375e+04 	1.056833e+09 	6.900524e+00 	6.024771e+38 	
1.201883e+06 	1.380184e+04 	1.054787e+09 	6.971307e+00 	6.024720e+38 	
1.201896e+06 	1.366137e+04 	1.052746e+09 	7.042817e+00 	6.024669e+38 	
1.201909e+06 	1.352233e+04 	1.050712e+09 	7.115060e+00 	6.024617e+38 	
1.201922e+06 	1.338470e+04 	1.048684e+09 	7.188043e+00 	6.024566e+38 	
1.201935e+06 	1.324848e+04 	1.046661e+09 	7.261776e+00 	6.024514e+38 	
1.201948e+06 	1.311364e+04 	1.044645e+09 	7.336264e+00 	6.024462e+38 	
1.201961e+06 	1.298018e+04 	1.042635e+09 	7.411517e+00 	6.024410e+38 	
1.201974e+06 	1.284807e+04 	1.040631e+09 	7.487541e+00 	6.024358e+38 	
1.201986e+06 	1.271731e+04 	1.038632e+09 	7.564346e+00 	6.024306e+38 	
1.201999e+06 	1.258788e+04 	1.036640e+09 	7.641938e+00 	6.024253e+38 	
1.202012e+06 	1.245977e+04 	1.034654e+09 	7.720325e+00 	6.024201e+38 	
1.202025e+06 	1.233296e+04 	1.032673e+09 	7.799517e+00 	6.024148e+38 	
1.202038e+06 	1.220744e+04 	1.030698e+09 	7.879521e+00 	6.024095e+38 	
1.202051e+06 	1.208320e+04 	1.028730e+09 	7.960346e+00 	6.024042e+38 	
1.202064e+06 	1.196022e+04 	1.026767e+09 	8.041999e+00 	6.023988e+38 	
1.202077e+06 	1.183849e+04 	1.024810e+09 	8.124490e+00 	6.023934e+38 	
1.202090e+06 	1.171801e+04 	1.022858e+09 	8.207828e+00 	6.023881e+38 	
1.202103e+06 	1.159875e+04 	1.020913e+09 	8.292019e+00 	6.023827e+38 	
1.202116e+06 	1.148070e+04 	1.018974e+09 	8.377075e+00 	6.023773e+38 	
1.202129e+06 	1.136386e+04 	1.017040e+09 	8.463003e+00 	6.023718e+38 	
1.202142e+06 	1.124820e+04 	1.015112e+09 	8.549812e+00 	6.023664e+38 	
1.202155e+06 	1.113372e+04 	1.013190e+09 	8.637511e+00 	6.023609e+38 	
1.202168e+06 	1.102041e+04 	1.011273e+09 	8.726110e+00 	6.023554e+38 	
1.202181e+06 	1.090825e+04 	1.009362e+09 	8.815617e+00 	6.023499e+38 	
1.202194e+06 	1.079723e+04 	1.007457e+09 	8.906043e+00 	6.023444e+38 	
1.202207e+06 	1.068734e+04 	1.005558e+09 	8.997396e+00 	6.023388e+38 	
1.202220e+06 	1.057857e+04 	1.003664e+09 	9.089686e+00 	6.023332e+38 	
1.202233e+06 	1.047090e+04 	1.001776e+09 	9.182922e+00 	6.023276e+38 	
1.202246e+06 	1.036434e+04 	9.998942e+08 	9.277115e+00 	6.023220e+38 	
1.202259e+06 	1.025885e+04 	9.980176e+08 	9.372273e+00 	6.023164e+38 	
1.202272e+06 	1.015444e+04 	9.961466e+08 	9.468408e+00 	6.023107e+38 	
1.202285e+06 	1.005109e+04 	9.942813e+08 	9.565529e+00 	6.023051e+38 	
1.202298e+06 	9.948799e+03 	9.924215e+08 	9.663645e+00 	6.022994e+38 	
1.202311e+06 	9.847545e+03 	9.905673e+08 	9.762768e+00 	6.022937e+38 	
1.202324e+06 	9.747322e+03 	9.887187e+08 	9.862908e+00 	6.022879e+38 	
1.202337e+06 	9.648118e+03 	9.868756e+08 	9.964075e+00 	6.022822e+38 	
1.202351e+06 	9.549924e+03 	9.850381e+08 	1.006628e+01 	6.022764e+38 	
1.202364e+06 	9.452729e+03 	9.832062e+08 	1.016953e+01 	6.022706e+38 	
1.202377e+06 	9.356524e+03 	9.813799e+08 	1.027384e+01 	6.022648e+38 	
1.202390e+06 	9.261297e+03 	9.795590e+08 	1.037922e+01 	6.022589e+38 	
1.202403e+06 	9.167040e+03 	9.777436e+08 	1.048569e+01 	6.022531e+38 	
1.202416e+06 	9.073742e+03 	9.759337e+08 	1.059324e+01 	6.022472e+38 	
1.202429e+06 	8.981394e+03 	9.741292e+08 	1.070190e+01 	6.022413e+38 	
1.202442e+06 	8.889986e+03 	9.723302e+08 	1.081167e+01 	6.022354e+38 	
1.202456e+06 	8.799507e+03 	9.705365e+08 	1.092256e+01 	6.022294e+38 	
1.202469e+06 	8.709950e+03 	9.687483e+08 	1.103460e+01 	6.022234e+38 	
1.202482e+06 	8.621304e+03 	9.669655e+08 	1.114778e+01 	6.022174e+38 	
1.202495e+06 	8.533561e+03 	9.651881e+08 	1.126212e+01 	6.022114e+38 	
1.202508e+06 	8.446710e+03 	9.634162e+08 	1.137764e+01 	6.022054e+38 	
1.202522e+06 	8.360743e+03 	9.616497e+08 	1.149434e+01 	6.021993e+38 	
1.202535e+06 	8.275652e+03 	9.598884e+08 	1.161224e+01 	6.021932e+38 	
1.202548e+06 	8.191426e+03 	9.581325e+08 	1.173135e+01 	6.021871e+38 	
1.202561e+06 	8.108057e+03 	9.563820e+08 	1.185168e+01 	6.021810e+38 	
1.202574e+06 	8.025537e+03 	9.546367e+08 	1.197324e+01 	6.021748e+38 	
1.202588e+06 	7.943857e+03 	9.528967e+08 	1.209605e+01 	6.021686e+38 	
1.202601e+06 	7.863008e+03 	9.511620e+08 	1.222012e+01 	6.021624e+38 	
1.202614e+06 	7.782982e+03 	9.494326e+08 	1.234546e+01 	6.021562e+38 	
1.202628e+06 	7.703771e+03 	9.477084e+08 	1.247208e+01 	6.021499e+38 	
1.202641e+06 	7.625365e+03 	9.459894e+08 	1.260001e+01 	6.021437e+38 	
1.202654e+06 	7.547758e+03 	9.442758e+08 	1.272924e+01 	6.021373e+38 	
1.202667e+06 	7.470940e+03 	9.425674e+08 	1.285981e+01 	6.021310e+38 	
1.202681e+06 	7.394905e+03 	9.408642e+08 	1.299171e+01 	6.021247e+38 	
1.202694e+06 	7.319643e+03 	9.391661e+08 	1.312496e+01 	6.021183e+38 	
1.202707e+06 	7.245147e+03 	9.374732e+08 	1.325958e+01 	6.021119e+38 	
1.202721e+06 	7.171409e+03 	9.357855e+08 	1.339558e+01 	6.021054e+38 	
1.202734e+06 	7.098422e+03 	9.341029e+08 	1.353298e+01 	6.020990e+38 	
1.202748e+06 	7.026177e+03 	9.324254e+08 	1.367178e+01 	6.020925e+38 	
1.202761e+06 	6.954668e+03 	9.307530e+08 	1.381201e+01 	6.020860e+38 	
1.202774e+06 	6.883887e+03 	9.290858e+08 	1.395367e+01 	6.020795e+38 	
1.202788e+06 	6.813826e+03 	9.274237e+08 	1.409679e+01 	6.020729e+38 	
1.202801e+06 	6.744478e+03 	9.257667e+08 	1.424138e+01 	6.020663e+38 	
1.202815e+06 	6.675836e+03 	9.241148e+08 	1.438745e+01 	6.020597e+38 	
1.202828e+06 	6.607892e+03 	9.224679e+08 	1.453501e+01 	6.020531e+38 	
1.202842e+06 	6.540640e+03 	9.208261e+08 	1.468409e+01 	6.020464e+38 	
1.202855e+06 	6.474073e+03 	9.191893e+08 	1.483470e+01 	6.020397e+38 	
1.202868e+06 	6.408183e+03 	9.175575e+08 	1.498685e+01 	6.020330e+38 	
1.202882e+06 	6.342963e+03 	9.159306e+08 	1.514057e+01 	6.020262e+38 	
1.202895e+06 	6.278407e+03 	9.143088e+08 	1.529586e+01 	6.020194e+38 	
1.202909e+06 	6.214509e+03 	9.126919e+08 	1.545274e+01 	6.020126e+38 	
1.202922e+06 	6.151260e+03 	9.110801e+08 	1.561123e+01 	6.020058e+38 	
1.202936e+06 	6.088656e+03 	9.094732e+08 	1.577134e+01 	6.019989e+38 	
1.202950e+06 	6.026688e+03 	9.078713e+08 	1.593310e+01 	6.019920e+38 	
1.202963e+06 	5.965351e+03 	9.062742e+08 	1.609652e+01 	6.019851e+38 	
1.202977e+06 	5.904639e+03 	9.046821e+08 	1.626161e+01 	6.019781e+38 	
1.202990e+06 	5.844544e+03 	9.030949e+08 	1.642839e+01 	6.019712e+38 	
1.203004e+06 	5.785061e+03 	9.015125e+08 	1.659689e+01 	6.019642e+38 	
1.203018e+06 	5.726183e+03 	8.999350e+08 	1.676711e+01 	6.019571e+38 	
1.203031e+06 	5.667905e+03 	8.983624e+08 	1.693908e+01 	6.019500e+38 	
1.203045e+06 	5.610220e+03 	8.967946e+08 	1.711281e+01 	6.019429e+38 	
1.203058e+06 	5.553122e+03 	8.952317e+08 	1.728832e+01 	6.019358e+38 	
1.203072e+06 	5.496604e+03 	8.936736e+08 	1.746564e+01 	6.019287e+38 	
1.203086e+06 	5.440663e+03 	8.921204e+08 	1.764477e+01 	6.019215e+38 	
1.203100e+06 	5.385290e+03 	8.905719e+08 	1.782573e+01 	6.019142e+38 	
1.203113e+06 	5.330481e+03 	8.890282e+08 	1.800856e+01 	6.019070e+38 	
1.203127e+06 	5.276230e+03 	8.874893e+08 	1.819325e+01 	6.018997e+38 	
1.203141e+06 	5.222531e+03 	8.859551e+08 	1.837985e+01 	6.018924e+38 	
1.203154e+06 	5.169378e+03 	8.844257e+08 	1.856835e+01 	6.018850e+38 	
1.203168e+06 	5.116767e+03 	8.829010e+08 	1.875879e+01 	6.018776e+38 	
1.203182e+06 	5.064691e+03 	8.813810e+08 	1.895118e+01 	6.018702e+38 	
1.203196e+06 	5.013145e+03 	8.798657e+08 	1.914554e+01 	6.018628e+38 	
1.203210e+06 	4.962123e+03 	8.783551e+08 	1.934189e+01 	6.018553e+38 	
1.203223e+06 	4.911621e+03 	8.768492e+08 	1.954026e+01 	6.018478e+38 	
1.203237e+06 	4.861633e+03 	8.753480e+08 	1.974067e+01 	6.018403e+38 	
1.203251e+06 	4.812154e+03 	8.738515e+08 	1.994312e+01 	6.018327e+38 	
1.203265e+06 	4.763178e+03 	8.723596e+08 	2.014766e+01 	6.018251e+38 	
1.203279e+06 	4.714700e+03 	8.708724e+08 	2.035429e+01 	6.018174e+38 	
1.203293e+06 	4.666716e+03 	8.693897e+08 	2.056304e+01 	6.018097e+38 	
1.203307e+06 	4.619221e+03 	8.679117e+08 	2.077392e+01 	6.018020e+38 	
1.203321e+06 	4.572208e+03 	8.664382e+08 	2.098698e+01 	6.017943e+38 	
1.203335e+06 	4.525675e+03 	8.649693e+08 	2.120221e+01 	6.017865e+38 	
1.203349e+06 	4.479614e+03 	8.635050e+08 	2.141965e+01 	6.017787e+38 	
1.203362e+06 	4.434023e+03 	8.620453e+08 	2.163932e+01 	6.017708e+38 	
1.203376e+06 	4.388895e+03 	8.605901e+08 	2.186125e+01 	6.017629e+38 	
1.203390e+06 	4.344227e+03 	8.591395e+08 	2.208545e+01 	6.017550e+38 	
1.203405e+06 	4.300014e+03 	8.576934e+08 	2.231195e+01 	6.017470e+38 	
1.203419e+06 	4.256250e+03 	8.562518e+08 	2.254077e+01 	6.017390e+38 	
1.203433e+06 	4.212932e+03 	8.548147e+08 	2.277193e+01 	6.017310e+38 	
1.203447e+06 	4.170055e+03 	8.533821e+08 	2.300547e+01 	6.017229e+38 	
1.203461e+06 	4.127614e+03 	8.519539e+08 	2.324140e+01 	6.017148e+38 	
1.203475e+06 	4.085605e+03 	8.505302e+08 	2.347975e+01 	6.017067e+38 	
1.203489e+06 	4.044024e+03 	8.491109e+08 	2.372054e+01 	6.016985e+38 	
1.203503e+06 	4.002866e+03 	8.476960e+08 	2.396380e+01 	6.016903e+38 	
1.203517e+06 	3.962126e+03 	8.462856e+08 	2.420955e+01 	6.016820e+38 	
1.203532e+06 	3.921802e+03 	8.448796e+08 	2.445783e+01 	6.016737e+38 	
1.203546e+06 	3.881887e+03 	8.434781e+08 	2.470865e+01 	6.016654e+38 	
1.203560e+06 	3.842379e+03 	8.420810e+08 	2.496204e+01 	6.016570e+38 	
1.203574e+06 	3.803273e+03 	8.406882e+08 	2.521803e+01 	6.016486e+38 	
1.203588e+06 	3.764565e+03 	8.392997e+08 	2.547664e+01 	6.016401e+38 	
1.203603e+06 	3.726251e+03 	8.379157e+08 	2.573791e+01 	6.016316e+38 	
1.203617e+06 	3.688327e+03 	8.365359e+08 	2.600185e+01 	6.016231e+38 	
1.203631e+06 	3.650789e+03 	8.351604e+08 	2.626850e+01 	6.016145e+38 	
1.203646e+06 	3.613633e+03 	8.337893e+08 	2.653788e+01 	6.016059e+38 	
1.203660e+06 	3.576855e+03 	8.324225e+08 	2.681003e+01 	6.015973e+38 	
