r (cm)      	rho (g/cm3) 	T (K)       	u (cm/s)    	L* (erg/s)  			 Edot= 1.959288e+39
1.200030e+06 	5.071455e+04 	1.459773e+09 	2.396827e+00 	6.656126e+38 	
1.200044e+06 	5.020206e+04 	1.456807e+09 	2.421227e+00 	6.656065e+38 	
1.200059e+06 	4.969476e+04 	1.453850e+09 	2.445876e+00 	6.656003e+38 	
1.200074e+06 	4.919258e+04 	1.450902e+09 	2.470775e+00 	6.655941e+38 	
1.200089e+06 	4.869548e+04 	1.447962e+09 	2.495928e+00 	6.655879e+38 	
1.200104e+06 	4.820340e+04 	1.445030e+09 	2.521337e+00 	6.655816e+38 	
1.200118e+06 	4.771629e+04 	1.442107e+09 	2.547005e+00 	6.655754e+38 	
1.200133e+06 	4.723410e+04 	1.439193e+09 	2.572934e+00 	6.655691e+38 	
1.200148e+06 	4.675679e+04 	1.436287e+09 	2.599127e+00 	6.655628e+38 	
1.200163e+06 	4.628430e+04 	1.433389e+09 	2.625587e+00 	6.655565e+38 	
1.200178e+06 	4.581658e+04 	1.430499e+09 	2.652316e+00 	6.655502e+38 	
1.200192e+06 	4.535360e+04 	1.427618e+09 	2.679317e+00 	6.655439e+38 	
1.200207e+06 	4.489529e+04 	1.424745e+09 	2.706593e+00 	6.655376e+38 	
1.200222e+06 	4.444161e+04 	1.421881e+09 	2.734146e+00 	6.655312e+38 	
1.200237e+06 	4.399251e+04 	1.419024e+09 	2.761980e+00 	6.655248e+38 	
1.200252e+06 	4.354796e+04 	1.416176e+09 	2.790098e+00 	6.655184e+38 	
1.200266e+06 	4.310789e+04 	1.413337e+09 	2.818502e+00 	6.655120e+38 	
1.200281e+06 	4.267228e+04 	1.410505e+09 	2.847195e+00 	6.655056e+38 	
1.200296e+06 	4.224106e+04 	1.407682e+09 	2.876180e+00 	6.654991e+38 	
1.200311e+06 	4.181421e+04 	1.404866e+09 	2.905460e+00 	6.654926e+38 	
1.200326e+06 	4.139166e+04 	1.402059e+09 	2.935038e+00 	6.654861e+38 	
1.200341e+06 	4.097339e+04 	1.399260e+09 	2.964917e+00 	6.654796e+38 	
1.200355e+06 	4.055934e+04 	1.396469e+09 	2.995100e+00 	6.654731e+38 	
1.200370e+06 	4.014948e+04 	1.393686e+09 	3.025591e+00 	6.654666e+38 	
1.200385e+06 	3.974376e+04 	1.390912e+09 	3.056392e+00 	6.654600e+38 	
1.200400e+06 	3.934214e+04 	1.388145e+09 	3.087507e+00 	6.654534e+38 	
1.200415e+06 	3.894457e+04 	1.385386e+09 	3.118938e+00 	6.654468e+38 	
1.200429e+06 	3.855103e+04 	1.382636e+09 	3.150690e+00 	6.654402e+38 	
1.200444e+06 	3.816146e+04 	1.379893e+09 	3.182764e+00 	6.654336e+38 	
1.200459e+06 	3.777583e+04 	1.377158e+09 	3.215165e+00 	6.654269e+38 	
1.200474e+06 	3.739409e+04 	1.374431e+09 	3.247896e+00 	6.654202e+38 	
1.200489e+06 	3.701622e+04 	1.371713e+09 	3.280960e+00 	6.654135e+38 	
1.200504e+06 	3.664216e+04 	1.369002e+09 	3.314361e+00 	6.654068e+38 	
1.200518e+06 	3.627188e+04 	1.366298e+09 	3.348102e+00 	6.654001e+38 	
1.200533e+06 	3.590534e+04 	1.363603e+09 	3.382186e+00 	6.653933e+38 	
1.200548e+06 	3.554251e+04 	1.360916e+09 	3.416617e+00 	6.653865e+38 	
1.200563e+06 	3.518334e+04 	1.358236e+09 	3.451399e+00 	6.653797e+38 	
1.200578e+06 	3.482781e+04 	1.355565e+09 	3.486535e+00 	6.653729e+38 	
1.200593e+06 	3.447586e+04 	1.352901e+09 	3.522028e+00 	6.653661e+38 	
1.200607e+06 	3.412747e+04 	1.350244e+09 	3.557883e+00 	6.653592e+38 	
1.200622e+06 	3.378261e+04 	1.347596e+09 	3.594102e+00 	6.653523e+38 	
1.200637e+06 	3.344123e+04 	1.344955e+09 	3.630691e+00 	6.653454e+38 	
1.200652e+06 	3.310329e+04 	1.342322e+09 	3.667652e+00 	6.653385e+38 	
1.200667e+06 	3.276878e+04 	1.339697e+09 	3.704989e+00 	6.653316e+38 	
1.200682e+06 	3.243764e+04 	1.337079e+09 	3.742706e+00 	6.653246e+38 	
1.200696e+06 	3.210985e+04 	1.334469e+09 	3.780807e+00 	6.653176e+38 	
1.200711e+06 	3.178537e+04 	1.331867e+09 	3.819296e+00 	6.653106e+38 	
1.200726e+06 	3.146417e+04 	1.329272e+09 	3.858177e+00 	6.653036e+38 	
1.200741e+06 	3.114622e+04 	1.326685e+09 	3.897454e+00 	6.652966e+38 	
1.200756e+06 	3.083147e+04 	1.324105e+09 	3.937130e+00 	6.652895e+38 	
1.200771e+06 	3.051991e+04 	1.321533e+09 	3.977210e+00 	6.652824e+38 	
1.200786e+06 	3.021150e+04 	1.318968e+09 	4.017699e+00 	6.652753e+38 	
1.200801e+06 	2.990621e+04 	1.316411e+09 	4.058599e+00 	6.652681e+38 	
1.200815e+06 	2.960400e+04 	1.313861e+09 	4.099916e+00 	6.652610e+38 	
1.200830e+06 	2.930484e+04 	1.311319e+09 	4.141653e+00 	6.652538e+38 	
1.200845e+06 	2.900871e+04 	1.308784e+09 	4.183816e+00 	6.652466e+38 	
1.200860e+06 	2.871557e+04 	1.306257e+09 	4.226407e+00 	6.652394e+38 	
1.200875e+06 	2.842539e+04 	1.303738e+09 	4.269432e+00 	6.652321e+38 	
1.200890e+06 	2.813814e+04 	1.301225e+09 	4.312895e+00 	6.652248e+38 	
1.200905e+06 	2.785380e+04 	1.298720e+09 	4.356800e+00 	6.652175e+38 	
1.200920e+06 	2.757233e+04 	1.296223e+09 	4.401152e+00 	6.652102e+38 	
1.200935e+06 	2.729370e+04 	1.293732e+09 	4.445956e+00 	6.652029e+38 	
1.200950e+06 	2.701789e+04 	1.291249e+09 	4.491216e+00 	6.651955e+38 	
1.200965e+06 	2.674487e+04 	1.288773e+09 	4.536936e+00 	6.651881e+38 	
1.200979e+06 	2.647461e+04 	1.286305e+09 	4.583122e+00 	6.651807e+38 	
1.200994e+06 	2.620707e+04 	1.283844e+09 	4.629778e+00 	6.651733e+38 	
1.201009e+06 	2.594224e+04 	1.281390e+09 	4.676909e+00 	6.651658e+38 	
1.201024e+06 	2.568009e+04 	1.278943e+09 	4.724520e+00 	6.651583e+38 	
1.201039e+06 	2.542059e+04 	1.276504e+09 	4.772615e+00 	6.651508e+38 	
1.201054e+06 	2.516371e+04 	1.274072e+09 	4.821200e+00 	6.651433e+38 	
1.201069e+06 	2.490942e+04 	1.271647e+09 	4.870280e+00 	6.651357e+38 	
1.201084e+06 	2.465770e+04 	1.269229e+09 	4.919859e+00 	6.651281e+38 	
1.201099e+06 	2.440853e+04 	1.266818e+09 	4.969942e+00 	6.651205e+38 	
1.201114e+06 	2.416188e+04 	1.264414e+09 	5.020536e+00 	6.651128e+38 	
1.201129e+06 	2.391771e+04 	1.262017e+09 	5.071644e+00 	6.651052e+38 	
1.201144e+06 	2.367602e+04 	1.259628e+09 	5.123273e+00 	6.650975e+38 	
1.201159e+06 	2.343677e+04 	1.257246e+09 	5.175427e+00 	6.650898e+38 	
1.201174e+06 	2.319993e+04 	1.254870e+09 	5.228112e+00 	6.650820e+38 	
1.201189e+06 	2.296549e+04 	1.252502e+09 	5.281333e+00 	6.650742e+38 	
1.201204e+06 	2.273342e+04 	1.250141e+09 	5.335096e+00 	6.650664e+38 	
1.201219e+06 	2.250369e+04 	1.247786e+09 	5.389407e+00 	6.650586e+38 	
1.201234e+06 	2.227629e+04 	1.245439e+09 	5.444270e+00 	6.650508e+38 	
1.201249e+06 	2.205118e+04 	1.243099e+09 	5.499691e+00 	6.650429e+38 	
1.201264e+06 	2.182834e+04 	1.240765e+09 	5.555677e+00 	6.650350e+38 	
1.201279e+06 	2.160776e+04 	1.238438e+09 	5.612232e+00 	6.650271e+38 	
1.201294e+06 	2.138941e+04 	1.236119e+09 	5.669363e+00 	6.650191e+38 	
1.201309e+06 	2.117327e+04 	1.233806e+09 	5.727076e+00 	6.650111e+38 	
1.201325e+06 	2.095930e+04 	1.231500e+09 	5.785376e+00 	6.650031e+38 	
1.201340e+06 	2.074751e+04 	1.229201e+09 	5.844269e+00 	6.649950e+38 	
1.201355e+06 	2.053785e+04 	1.226909e+09 	5.903762e+00 	6.649870e+38 	
1.201370e+06 	2.033031e+04 	1.224624e+09 	5.963861e+00 	6.649789e+38 	
1.201385e+06 	2.012486e+04 	1.222345e+09 	6.024571e+00 	6.649707e+38 	
1.201400e+06 	1.992150e+04 	1.220074e+09 	6.085899e+00 	6.649626e+38 	
1.201415e+06 	1.972018e+04 	1.217809e+09 	6.147851e+00 	6.649544e+38 	
1.201430e+06 	1.952091e+04 	1.215550e+09 	6.210434e+00 	6.649462e+38 	
1.201445e+06 	1.932364e+04 	1.213299e+09 	6.273653e+00 	6.649379e+38 	
1.201461e+06 	1.912837e+04 	1.211054e+09 	6.337517e+00 	6.649296e+38 	
1.201476e+06 	1.893507e+04 	1.208816e+09 	6.402030e+00 	6.649213e+38 	
1.201491e+06 	1.874373e+04 	1.206584e+09 	6.467200e+00 	6.649130e+38 	
1.201506e+06 	1.855432e+04 	1.204360e+09 	6.533033e+00 	6.649046e+38 	
1.201521e+06 	1.836682e+04 	1.202141e+09 	6.599536e+00 	6.648962e+38 	
1.201536e+06 	1.818122e+04 	1.199930e+09 	6.666716e+00 	6.648878e+38 	
1.201552e+06 	1.799750e+04 	1.197725e+09 	6.734580e+00 	6.648793e+38 	
1.201567e+06 	1.781563e+04 	1.195527e+09 	6.803134e+00 	6.648708e+38 	
1.201582e+06 	1.763560e+04 	1.193335e+09 	6.872387e+00 	6.648623e+38 	
1.201597e+06 	1.745738e+04 	1.191150e+09 	6.942344e+00 	6.648537e+38 	
1.201612e+06 	1.728097e+04 	1.188971e+09 	7.013013e+00 	6.648452e+38 	
1.201628e+06 	1.710634e+04 	1.186799e+09 	7.084401e+00 	6.648365e+38 	
1.201643e+06 	1.693348e+04 	1.184634e+09 	7.156516e+00 	6.648279e+38 	
1.201658e+06 	1.676236e+04 	1.182475e+09 	7.229365e+00 	6.648192e+38 	
1.201673e+06 	1.659297e+04 	1.180322e+09 	7.302955e+00 	6.648105e+38 	
1.201689e+06 	1.642530e+04 	1.178176e+09 	7.377294e+00 	6.648017e+38 	
1.201704e+06 	1.625931e+04 	1.176036e+09 	7.452390e+00 	6.647929e+38 	
1.201719e+06 	1.609501e+04 	1.173903e+09 	7.528250e+00 	6.647841e+38 	
1.201735e+06 	1.593237e+04 	1.171776e+09 	7.604882e+00 	6.647753e+38 	
1.201750e+06 	1.577137e+04 	1.169656e+09 	7.682294e+00 	6.647664e+38 	
1.201765e+06 	1.561199e+04 	1.167541e+09 	7.760494e+00 	6.647575e+38 	
1.201781e+06 	1.545423e+04 	1.165434e+09 	7.839490e+00 	6.647485e+38 	
1.201796e+06 	1.529806e+04 	1.163332e+09 	7.919290e+00 	6.647395e+38 	
1.201811e+06 	1.514347e+04 	1.161237e+09 	7.999902e+00 	6.647305e+38 	
1.201827e+06 	1.499044e+04 	1.159149e+09 	8.081334e+00 	6.647215e+38 	
1.201842e+06 	1.483896e+04 	1.157066e+09 	8.163595e+00 	6.647124e+38 	
1.201857e+06 	1.468901e+04 	1.154990e+09 	8.246693e+00 	6.647032e+38 	
1.201873e+06 	1.454057e+04 	1.152920e+09 	8.330637e+00 	6.646941e+38 	
1.201888e+06 	1.439363e+04 	1.150856e+09 	8.415436e+00 	6.646849e+38 	
1.201904e+06 	1.424818e+04 	1.148799e+09 	8.501097e+00 	6.646756e+38 	
1.201919e+06 	1.410420e+04 	1.146748e+09 	8.587630e+00 	6.646664e+38 	
1.201935e+06 	1.396167e+04 	1.144703e+09 	8.675043e+00 	6.646571e+38 	
1.201950e+06 	1.382059e+04 	1.142664e+09 	8.763346e+00 	6.646477e+38 	
1.201966e+06 	1.368093e+04 	1.140631e+09 	8.852548e+00 	6.646383e+38 	
1.201981e+06 	1.354268e+04 	1.138605e+09 	8.942658e+00 	6.646289e+38 	
1.201997e+06 	1.340582e+04 	1.136584e+09 	9.033685e+00 	6.646195e+38 	
1.202012e+06 	1.327035e+04 	1.134570e+09 	9.125638e+00 	6.646100e+38 	
1.202028e+06 	1.313625e+04 	1.132562e+09 	9.218526e+00 	6.646004e+38 	
1.202043e+06 	1.300351e+04 	1.130560e+09 	9.312360e+00 	6.645909e+38 	
1.202059e+06 	1.287211e+04 	1.128564e+09 	9.407149e+00 	6.645812e+38 	
1.202074e+06 	1.274203e+04 	1.126573e+09 	9.502903e+00 	6.645716e+38 	
1.202090e+06 	1.261327e+04 	1.124589e+09 	9.599631e+00 	6.645619e+38 	
1.202105e+06 	1.248581e+04 	1.122611e+09 	9.697343e+00 	6.645522e+38 	
1.202121e+06 	1.235963e+04 	1.120639e+09 	9.796050e+00 	6.645424e+38 	
1.202137e+06 	1.223474e+04 	1.118674e+09 	9.895761e+00 	6.645326e+38 	
1.202152e+06 	1.211110e+04 	1.116714e+09 	9.996487e+00 	6.645228e+38 	
1.202168e+06 	1.198872e+04 	1.114760e+09 	1.009824e+01 	6.645129e+38 	
1.202184e+06 	1.186757e+04 	1.112812e+09 	1.020102e+01 	6.645029e+38 	
1.202199e+06 	1.174764e+04 	1.110869e+09 	1.030486e+01 	6.644930e+38 	
1.202215e+06 	1.162893e+04 	1.108933e+09 	1.040974e+01 	6.644830e+38 	
1.202231e+06 	1.151142e+04 	1.107003e+09 	1.051570e+01 	6.644729e+38 	
1.202246e+06 	1.139509e+04 	1.105078e+09 	1.062274e+01 	6.644628e+38 	
1.202262e+06 	1.127994e+04 	1.103160e+09 	1.073086e+01 	6.644527e+38 	
1.202278e+06 	1.116595e+04 	1.101247e+09 	1.084008e+01 	6.644425e+38 	
1.202294e+06 	1.105312e+04 	1.099340e+09 	1.095042e+01 	6.644323e+38 	
1.202309e+06 	1.094142e+04 	1.097439e+09 	1.106188e+01 	6.644220e+38 	
1.202325e+06 	1.083086e+04 	1.095544e+09 	1.117447e+01 	6.644117e+38 	
1.202341e+06 	1.072141e+04 	1.093654e+09 	1.128821e+01 	6.644013e+38 	
1.202357e+06 	1.061307e+04 	1.091770e+09 	1.140310e+01 	6.643909e+38 	
1.202373e+06 	1.050582e+04 	1.089892e+09 	1.151916e+01 	6.643805e+38 	
1.202388e+06 	1.039965e+04 	1.088020e+09 	1.163641e+01 	6.643700e+38 	
1.202404e+06 	1.029456e+04 	1.086154e+09 	1.175485e+01 	6.643595e+38 	
1.202420e+06 	1.019053e+04 	1.084293e+09 	1.187449e+01 	6.643489e+38 	
1.202436e+06 	1.008756e+04 	1.082437e+09 	1.199535e+01 	6.643383e+38 	
1.202452e+06 	9.985618e+03 	1.080588e+09 	1.211744e+01 	6.643276e+38 	
1.202468e+06 	9.884711e+03 	1.078744e+09 	1.224078e+01 	6.643169e+38 	
1.202484e+06 	9.784823e+03 	1.076906e+09 	1.236536e+01 	6.643062e+38 	
1.202500e+06 	9.685945e+03 	1.075073e+09 	1.249122e+01 	6.642954e+38 	
1.202516e+06 	9.588066e+03 	1.073247e+09 	1.261836e+01 	6.642845e+38 	
1.202532e+06 	9.491176e+03 	1.071425e+09 	1.274679e+01 	6.642736e+38 	
1.202548e+06 	9.395265e+03 	1.069609e+09 	1.287652e+01 	6.642627e+38 	
1.202564e+06 	9.300324e+03 	1.067799e+09 	1.300758e+01 	6.642517e+38 	
1.202580e+06 	9.206341e+03 	1.065995e+09 	1.313997e+01 	6.642406e+38 	
1.202596e+06 	9.113309e+03 	1.064196e+09 	1.327370e+01 	6.642295e+38 	
1.202612e+06 	9.021217e+03 	1.062402e+09 	1.340880e+01 	6.642184e+38 	
1.202628e+06 	8.930055e+03 	1.060614e+09 	1.354527e+01 	6.642072e+38 	
1.202644e+06 	8.839814e+03 	1.058831e+09 	1.368314e+01 	6.641960e+38 	
1.202660e+06 	8.750486e+03 	1.057054e+09 	1.382240e+01 	6.641847e+38 	
1.202676e+06 	8.662060e+03 	1.055283e+09 	1.396308e+01 	6.641733e+38 	
1.202693e+06 	8.574527e+03 	1.053517e+09 	1.410519e+01 	6.641619e+38 	
1.202709e+06 	8.487879e+03 	1.051756e+09 	1.424875e+01 	6.641505e+38 	
1.202725e+06 	8.402107e+03 	1.050001e+09 	1.439377e+01 	6.641390e+38 	
1.202741e+06 	8.317202e+03 	1.048251e+09 	1.454026e+01 	6.641275e+38 	
1.202757e+06 	8.233154e+03 	1.046506e+09 	1.468824e+01 	6.641159e+38 	
1.202774e+06 	8.149956e+03 	1.044767e+09 	1.483773e+01 	6.641042e+38 	
1.202790e+06 	8.067598e+03 	1.043033e+09 	1.498874e+01 	6.640925e+38 	
1.202806e+06 	7.986073e+03 	1.041305e+09 	1.514129e+01 	6.640807e+38 	
1.202823e+06 	7.905372e+03 	1.039582e+09 	1.529539e+01 	6.640689e+38 	
1.202839e+06 	7.825486e+03 	1.037864e+09 	1.545106e+01 	6.640571e+38 	
1.202855e+06 	7.746407e+03 	1.036152e+09 	1.560831e+01 	6.640452e+38 	
1.202872e+06 	7.668128e+03 	1.034444e+09 	1.576716e+01 	6.640332e+38 	
1.202888e+06 	7.590639e+03 	1.032743e+09 	1.592762e+01 	6.640212e+38 	
1.202904e+06 	7.513934e+03 	1.031046e+09 	1.608972e+01 	6.640091e+38 	
1.202921e+06 	7.438004e+03 	1.029355e+09 	1.625347e+01 	6.639969e+38 	
1.202937e+06 	7.362841e+03 	1.027668e+09 	1.641888e+01 	6.639847e+38 	
1.202954e+06 	7.288437e+03 	1.025987e+09 	1.658598e+01 	6.639725e+38 	
1.202970e+06 	7.214786e+03 	1.024311e+09 	1.675478e+01 	6.639602e+38 	
1.202987e+06 	7.141878e+03 	1.022641e+09 	1.692529e+01 	6.639478e+38 	
1.203003e+06 	7.069708e+03 	1.020975e+09 	1.709754e+01 	6.639354e+38 	
1.203020e+06 	6.998267e+03 	1.019315e+09 	1.727154e+01 	6.639229e+38 	
1.203037e+06 	6.927547e+03 	1.017660e+09 	1.744731e+01 	6.639104e+38 	
1.203053e+06 	6.857543e+03 	1.016010e+09 	1.762487e+01 	6.638978e+38 	
1.203070e+06 	6.788245e+03 	1.014365e+09 	1.780423e+01 	6.638851e+38 	
1.203086e+06 	6.719648e+03 	1.012725e+09 	1.798542e+01 	6.638724e+38 	
1.203103e+06 	6.651744e+03 	1.011091e+09 	1.816846e+01 	6.638596e+38 	
1.203120e+06 	6.584527e+03 	1.009461e+09 	1.835335e+01 	6.638468e+38 	
1.203137e+06 	6.517988e+03 	1.007837e+09 	1.854013e+01 	6.638339e+38 	
1.203153e+06 	6.452122e+03 	1.006217e+09 	1.872880e+01 	6.638209e+38 	
1.203170e+06 	6.386922e+03 	1.004602e+09 	1.891940e+01 	6.638079e+38 	
1.203187e+06 	6.322381e+03 	1.002993e+09 	1.911193e+01 	6.637948e+38 	
1.203204e+06 	6.258491e+03 	1.001388e+09 	1.930642e+01 	6.637817e+38 	
1.203220e+06 	6.195247e+03 	9.997889e+08 	1.950289e+01 	6.637685e+38 	
1.203237e+06 	6.132643e+03 	9.981944e+08 	1.970136e+01 	6.637552e+38 	
1.203254e+06 	6.070671e+03 	9.966048e+08 	1.990185e+01 	6.637418e+38 	
1.203271e+06 	6.009325e+03 	9.950202e+08 	2.010438e+01 	6.637284e+38 	
1.203288e+06 	5.948599e+03 	9.934404e+08 	2.030896e+01 	6.637150e+38 	
1.203305e+06 	5.888487e+03 	9.918656e+08 	2.051563e+01 	6.637014e+38 	
1.203322e+06 	5.828982e+03 	9.902956e+08 	2.072440e+01 	6.636878e+38 	
1.203339e+06 	5.770079e+03 	9.887305e+08 	2.093530e+01 	6.636742e+38 	
1.203356e+06 	5.711771e+03 	9.871703e+08 	2.114834e+01 	6.636604e+38 	
1.203373e+06 	5.654052e+03 	9.856150e+08 	2.136354e+01 	6.636467e+38 	
1.203390e+06 	5.596916e+03 	9.840645e+08 	2.158094e+01 	6.636328e+38 	
1.203407e+06 	5.540358e+03 	9.825189e+08 	2.180054e+01 	6.636188e+38 	
1.203424e+06 	5.484371e+03 	9.809781e+08 	2.202238e+01 	6.636048e+38 	
1.203441e+06 	5.428950e+03 	9.794421e+08 	2.224648e+01 	6.635908e+38 	
1.203459e+06 	5.374089e+03 	9.779108e+08 	2.247285e+01 	6.635766e+38 	
1.203476e+06 	5.319783e+03 	9.763844e+08 	2.270153e+01 	6.635624e+38 	
1.203493e+06 	5.266025e+03 	9.748626e+08 	2.293253e+01 	6.635481e+38 	
1.203510e+06 	5.212810e+03 	9.733456e+08 	2.316589e+01 	6.635338e+38 	
1.203528e+06 	5.160133e+03 	9.718333e+08 	2.340161e+01 	6.635194e+38 	
1.203545e+06 	5.107989e+03 	9.703258e+08 	2.363974e+01 	6.635049e+38 	
1.203562e+06 	5.056371e+03 	9.688229e+08 	2.388028e+01 	6.634903e+38 	
1.203580e+06 	5.005275e+03 	9.673248e+08 	2.412328e+01 	6.634756e+38 	
1.203597e+06 	4.954696e+03 	9.658313e+08 	2.436874e+01 	6.634609e+38 	
1.203614e+06 	4.904627e+03 	9.643425e+08 	2.461670e+01 	6.634461e+38 	
1.203632e+06 	4.855065e+03 	9.628584e+08 	2.486718e+01 	6.634313e+38 	
1.203649e+06 	4.806003e+03 	9.613788e+08 	2.512021e+01 	6.634163e+38 	
1.203667e+06 	4.757437e+03 	9.599039e+08 	2.537581e+01 	6.634013e+38 	
1.203684e+06 	4.709362e+03 	9.584335e+08 	2.563401e+01 	6.633862e+38 	
1.203702e+06 	4.661773e+03 	9.569678e+08 	2.589484e+01 	6.633711e+38 	
1.203719e+06 	4.614664e+03 	9.555066e+08 	2.615832e+01 	6.633558e+38 	
1.203737e+06 	4.568032e+03 	9.540500e+08 	2.642448e+01 	6.633405e+38 	
1.203755e+06 	4.521871e+03 	9.525979e+08 	2.669335e+01 	6.633251e+38 	
1.203772e+06 	4.476176e+03 	9.511505e+08 	2.696495e+01 	6.633096e+38 	
1.203790e+06 	4.430943e+03 	9.497075e+08 	2.723931e+01 	6.632940e+38 	
1.203808e+06 	4.386167e+03 	9.482690e+08 	2.751647e+01 	6.632784e+38 	
1.203826e+06 	4.341844e+03 	9.468351e+08 	2.779644e+01 	6.632627e+38 	
1.203843e+06 	4.297968e+03 	9.454056e+08 	2.807926e+01 	6.632469e+38 	
1.203861e+06 	4.254536e+03 	9.439805e+08 	2.836495e+01 	6.632310e+38 	
1.203879e+06 	4.211543e+03 	9.425599e+08 	2.865355e+01 	6.632150e+38 	
1.203897e+06 	4.168984e+03 	9.411438e+08 	2.894508e+01 	6.631990e+38 	
1.203915e+06 	4.126855e+03 	9.397320e+08 	2.923958e+01 	6.631828e+38 	
1.203933e+06 	4.085152e+03 	9.383246e+08 	2.953707e+01 	6.631666e+38 	
1.203951e+06 	4.043871e+03 	9.369217e+08 	2.983759e+01 	6.631503e+38 	
1.203969e+06 	4.003007e+03 	9.355232e+08 	3.014117e+01 	6.631339e+38 	
1.203987e+06 	3.962555e+03 	9.341291e+08 	3.044783e+01 	6.631175e+38 	
1.204005e+06 	3.922512e+03 	9.327393e+08 	3.075761e+01 	6.631009e+38 	
1.204023e+06 	3.882874e+03 	9.313539e+08 	3.107054e+01 	6.630843e+38 	
1.204041e+06 	3.843637e+03 	9.299728e+08 	3.138665e+01 	6.630675e+38 	
1.204059e+06 	3.804796e+03 	9.285960e+08 	3.170597e+01 	6.630507e+38 	
1.204078e+06 	3.766348e+03 	9.272235e+08 	3.202854e+01 	6.630338e+38 	
1.204096e+06 	3.728288e+03 	9.258553e+08 	3.235440e+01 	6.630168e+38 	
1.204114e+06 	3.690612e+03 	9.244913e+08 	3.268356e+01 	6.629997e+38 	
1.204132e+06 	3.653318e+03 	9.231316e+08 	3.301607e+01 	6.629825e+38 	
1.204151e+06 	3.616400e+03 	9.217762e+08 	3.335196e+01 	6.629652e+38 	
1.204169e+06 	3.579855e+03 	9.204251e+08 	3.369127e+01 	6.629479e+38 	
1.204187e+06 	3.543680e+03 	9.190782e+08 	3.403403e+01 	6.629304e+38 	
1.204206e+06 	3.507870e+03 	9.177354e+08 	3.438027e+01 	6.629129e+38 	
1.204224e+06 	3.472422e+03 	9.163969e+08 	3.473003e+01 	6.628952e+38 	
1.204243e+06 	3.437332e+03 	9.150626e+08 	3.508335e+01 	6.628775e+38 	
1.204261e+06 	3.402597e+03 	9.137324e+08 	3.544026e+01 	6.628596e+38 	
1.204280e+06 	3.368213e+03 	9.124064e+08 	3.580080e+01 	6.628417e+38 	
1.204299e+06 	3.334176e+03 	9.110845e+08 	3.616500e+01 	6.628237e+38 	
1.204317e+06 	3.300484e+03 	9.097667e+08 	3.653291e+01 	6.628056e+38 	
1.204336e+06 	3.267131e+03 	9.084530e+08 	3.690456e+01 	6.627873e+38 	
1.204355e+06 	3.234116e+03 	9.071434e+08 	3.727998e+01 	6.627690e+38 	
1.204374e+06 	3.201435e+03 	9.058380e+08 	3.765922e+01 	6.627506e+38 	
1.204392e+06 	3.169083e+03 	9.045367e+08 	3.804232e+01 	6.627321e+38 	
1.204411e+06 	3.137059e+03 	9.032394e+08 	3.842931e+01 	6.627134e+38 	
1.204430e+06 	3.105358e+03 	9.019462e+08 	3.882024e+01 	6.626947e+38 	
1.204449e+06 	3.073978e+03 	9.006570e+08 	3.921514e+01 	6.626759e+38 	
1.204468e+06 	3.042914e+03 	8.993719e+08 	3.961405e+01 	6.626570e+38 	
1.204487e+06 	3.012165e+03 	8.980907e+08 	4.001702e+01 	6.626379e+38 	
1.204506e+06 	2.981726e+03 	8.968135e+08 	4.042408e+01 	6.626188e+38 	
