r (cm)      	rho (g/cm3) 	T (K)       	u (cm/s)    	L* (erg/s)  			 Edot= 2.373152e+39
1.199942e+06 	3.781712e+04 	1.493399e+09 	4.047179e+00 	7.437678e+38 	
1.199960e+06 	3.743871e+04 	1.490674e+09 	4.087948e+00 	7.437556e+38 	
1.199978e+06 	3.706409e+04 	1.487957e+09 	4.129128e+00 	7.437433e+38 	
1.199996e+06 	3.669322e+04 	1.485248e+09 	4.170723e+00 	7.437311e+38 	
1.200013e+06 	3.632607e+04 	1.482546e+09 	4.212736e+00 	7.437187e+38 	
1.200031e+06 	3.596258e+04 	1.479853e+09 	4.255173e+00 	7.437063e+38 	
1.200049e+06 	3.560273e+04 	1.477168e+09 	4.298037e+00 	7.436939e+38 	
1.200067e+06 	3.524649e+04 	1.474491e+09 	4.341332e+00 	7.436815e+38 	
1.200084e+06 	3.489381e+04 	1.471822e+09 	4.385064e+00 	7.436689e+38 	
1.200102e+06 	3.454465e+04 	1.469160e+09 	4.429236e+00 	7.436564e+38 	
1.200120e+06 	3.419899e+04 	1.466507e+09 	4.473853e+00 	7.436438e+38 	
1.200138e+06 	3.385679e+04 	1.463861e+09 	4.518920e+00 	7.436311e+38 	
1.200156e+06 	3.351802e+04 	1.461223e+09 	4.564440e+00 	7.436184e+38 	
1.200174e+06 	3.318263e+04 	1.458593e+09 	4.610419e+00 	7.436057e+38 	
1.200191e+06 	3.285060e+04 	1.455971e+09 	4.656861e+00 	7.435929e+38 	
1.200209e+06 	3.252189e+04 	1.453356e+09 	4.703770e+00 	7.435801e+38 	
1.200227e+06 	3.219647e+04 	1.450750e+09 	4.751152e+00 	7.435672e+38 	
1.200245e+06 	3.187431e+04 	1.448151e+09 	4.799011e+00 	7.435542e+38 	
1.200263e+06 	3.155537e+04 	1.445560e+09 	4.847353e+00 	7.435413e+38 	
1.200281e+06 	3.123962e+04 	1.442976e+09 	4.896181e+00 	7.435282e+38 	
1.200299e+06 	3.092703e+04 	1.440400e+09 	4.945500e+00 	7.435151e+38 	
1.200317e+06 	3.061757e+04 	1.437832e+09 	4.995317e+00 	7.435020e+38 	
1.200335e+06 	3.031121e+04 	1.435271e+09 	5.045635e+00 	7.434888e+38 	
1.200353e+06 	3.000791e+04 	1.432718e+09 	5.096460e+00 	7.434756e+38 	
1.200371e+06 	2.970764e+04 	1.430173e+09 	5.147796e+00 	7.434623e+38 	
1.200389e+06 	2.941039e+04 	1.427635e+09 	5.199650e+00 	7.434490e+38 	
1.200407e+06 	2.911610e+04 	1.425105e+09 	5.252026e+00 	7.434356e+38 	
1.200425e+06 	2.882476e+04 	1.422582e+09 	5.304930e+00 	7.434222e+38 	
1.200443e+06 	2.853633e+04 	1.420067e+09 	5.358366e+00 	7.434087e+38 	
1.200461e+06 	2.825080e+04 	1.417559e+09 	5.412340e+00 	7.433951e+38 	
1.200479e+06 	2.796811e+04 	1.415059e+09 	5.466858e+00 	7.433815e+38 	
1.200497e+06 	2.768826e+04 	1.412566e+09 	5.521925e+00 	7.433679e+38 	
1.200515e+06 	2.741121e+04 	1.410081e+09 	5.577546e+00 	7.433542e+38 	
1.200533e+06 	2.713693e+04 	1.407603e+09 	5.633727e+00 	7.433404e+38 	
1.200551e+06 	2.686539e+04 	1.405132e+09 	5.690475e+00 	7.433266e+38 	
1.200569e+06 	2.659657e+04 	1.402669e+09 	5.747793e+00 	7.433127e+38 	
1.200588e+06 	2.633044e+04 	1.400213e+09 	5.805689e+00 	7.432988e+38 	
1.200606e+06 	2.606697e+04 	1.397765e+09 	5.864168e+00 	7.432849e+38 	
1.200624e+06 	2.580614e+04 	1.395323e+09 	5.923236e+00 	7.432708e+38 	
1.200642e+06 	2.554792e+04 	1.392890e+09 	5.982899e+00 	7.432567e+38 	
1.200660e+06 	2.529229e+04 	1.390463e+09 	6.043162e+00 	7.432426e+38 	
1.200679e+06 	2.503921e+04 	1.388044e+09 	6.104033e+00 	7.432284e+38 	
1.200697e+06 	2.478866e+04 	1.385632e+09 	6.165516e+00 	7.432142e+38 	
1.200715e+06 	2.454062e+04 	1.383227e+09 	6.227618e+00 	7.431998e+38 	
1.200733e+06 	2.429507e+04 	1.380829e+09 	6.290346e+00 	7.431855e+38 	
1.200752e+06 	2.405197e+04 	1.378438e+09 	6.353705e+00 	7.431710e+38 	
1.200770e+06 	2.381130e+04 	1.376055e+09 	6.417703e+00 	7.431566e+38 	
1.200788e+06 	2.357304e+04 	1.373679e+09 	6.482344e+00 	7.431420e+38 	
1.200806e+06 	2.333716e+04 	1.371310e+09 	6.547637e+00 	7.431274e+38 	
1.200825e+06 	2.310365e+04 	1.368948e+09 	6.613587e+00 	7.431127e+38 	
1.200843e+06 	2.287247e+04 	1.366593e+09 	6.680202e+00 	7.430980e+38 	
1.200862e+06 	2.264360e+04 	1.364245e+09 	6.747487e+00 	7.430832e+38 	
1.200880e+06 	2.241703e+04 	1.361905e+09 	6.815449e+00 	7.430684e+38 	
1.200898e+06 	2.219272e+04 	1.359571e+09 	6.884096e+00 	7.430535e+38 	
1.200917e+06 	2.197065e+04 	1.357244e+09 	6.953434e+00 	7.430385e+38 	
1.200935e+06 	2.175081e+04 	1.354924e+09 	7.023470e+00 	7.430235e+38 	
1.200954e+06 	2.153317e+04 	1.352612e+09 	7.094212e+00 	7.430084e+38 	
1.200972e+06 	2.131771e+04 	1.350306e+09 	7.165665e+00 	7.429932e+38 	
1.200991e+06 	2.110440e+04 	1.348007e+09 	7.237839e+00 	7.429780e+38 	
1.201009e+06 	2.089322e+04 	1.345715e+09 	7.310738e+00 	7.429627e+38 	
1.201028e+06 	2.068416e+04 	1.343430e+09 	7.384372e+00 	7.429474e+38 	
1.201046e+06 	2.047719e+04 	1.341152e+09 	7.458748e+00 	7.429320e+38 	
1.201065e+06 	2.027230e+04 	1.338881e+09 	7.533872e+00 	7.429165e+38 	
1.201083e+06 	2.006945e+04 	1.336616e+09 	7.609752e+00 	7.429009e+38 	
1.201102e+06 	1.986863e+04 	1.334359e+09 	7.686397e+00 	7.428853e+38 	
1.201120e+06 	1.966982e+04 	1.332108e+09 	7.763813e+00 	7.428696e+38 	
1.201139e+06 	1.947300e+04 	1.329864e+09 	7.842009e+00 	7.428539e+38 	
1.201158e+06 	1.927815e+04 	1.327626e+09 	7.920992e+00 	7.428381e+38 	
1.201176e+06 	1.908525e+04 	1.325396e+09 	8.000770e+00 	7.428222e+38 	
1.201195e+06 	1.889428e+04 	1.323172e+09 	8.081351e+00 	7.428063e+38 	
1.201214e+06 	1.870522e+04 	1.320955e+09 	8.162744e+00 	7.427903e+38 	
1.201233e+06 	1.851805e+04 	1.318745e+09 	8.244956e+00 	7.427742e+38 	
1.201251e+06 	1.833276e+04 	1.316541e+09 	8.327996e+00 	7.427580e+38 	
1.201270e+06 	1.814932e+04 	1.314344e+09 	8.411872e+00 	7.427418e+38 	
1.201289e+06 	1.796771e+04 	1.312154e+09 	8.496592e+00 	7.427255e+38 	
1.201308e+06 	1.778793e+04 	1.309970e+09 	8.582166e+00 	7.427091e+38 	
1.201326e+06 	1.760994e+04 	1.307793e+09 	8.668601e+00 	7.426927e+38 	
1.201345e+06 	1.743373e+04 	1.305622e+09 	8.755906e+00 	7.426762e+38 	
1.201364e+06 	1.725929e+04 	1.303458e+09 	8.844090e+00 	7.426596e+38 	
1.201383e+06 	1.708659e+04 	1.301301e+09 	8.933161e+00 	7.426430e+38 	
1.201402e+06 	1.691562e+04 	1.299150e+09 	9.023130e+00 	7.426262e+38 	
1.201421e+06 	1.674635e+04 	1.297005e+09 	9.114004e+00 	7.426094e+38 	
1.201440e+06 	1.657879e+04 	1.294867e+09 	9.205793e+00 	7.425926e+38 	
1.201459e+06 	1.641290e+04 	1.292736e+09 	9.298507e+00 	7.425756e+38 	
1.201478e+06 	1.624867e+04 	1.290611e+09 	9.392153e+00 	7.425586e+38 	
1.201497e+06 	1.608608e+04 	1.288492e+09 	9.486742e+00 	7.425415e+38 	
1.201516e+06 	1.592512e+04 	1.286380e+09 	9.582284e+00 	7.425243e+38 	
1.201535e+06 	1.576577e+04 	1.284275e+09 	9.678787e+00 	7.425070e+38 	
1.201554e+06 	1.560802e+04 	1.282175e+09 	9.776262e+00 	7.424897e+38 	
1.201573e+06 	1.545184e+04 	1.280082e+09 	9.874718e+00 	7.424723e+38 	
1.201592e+06 	1.529723e+04 	1.277996e+09 	9.974165e+00 	7.424548e+38 	
1.201611e+06 	1.514416e+04 	1.275915e+09 	1.007461e+01 	7.424372e+38 	
1.201631e+06 	1.499263e+04 	1.273841e+09 	1.017607e+01 	7.424196e+38 	
1.201650e+06 	1.484261e+04 	1.271774e+09 	1.027855e+01 	7.424019e+38 	
1.201669e+06 	1.469409e+04 	1.269712e+09 	1.038207e+01 	7.423841e+38 	
1.201688e+06 	1.454706e+04 	1.267657e+09 	1.048662e+01 	7.423662e+38 	
1.201707e+06 	1.440150e+04 	1.265608e+09 	1.059223e+01 	7.423482e+38 	
1.201727e+06 	1.425739e+04 	1.263566e+09 	1.069890e+01 	7.423301e+38 	
1.201746e+06 	1.411473e+04 	1.261529e+09 	1.080664e+01 	7.423120e+38 	
1.201765e+06 	1.397350e+04 	1.259499e+09 	1.091547e+01 	7.422938e+38 	
1.201785e+06 	1.383368e+04 	1.257475e+09 	1.102539e+01 	7.422755e+38 	
1.201804e+06 	1.369526e+04 	1.255457e+09 	1.113642e+01 	7.422571e+38 	
1.201824e+06 	1.355822e+04 	1.253445e+09 	1.124857e+01 	7.422386e+38 	
1.201843e+06 	1.342255e+04 	1.251439e+09 	1.136185e+01 	7.422201e+38 	
1.201862e+06 	1.328824e+04 	1.249440e+09 	1.147626e+01 	7.422014e+38 	
1.201882e+06 	1.315528e+04 	1.247446e+09 	1.159183e+01 	7.421827e+38 	
1.201901e+06 	1.302365e+04 	1.245459e+09 	1.170856e+01 	7.421639e+38 	
1.201921e+06 	1.289333e+04 	1.243477e+09 	1.182647e+01 	7.421449e+38 	
1.201941e+06 	1.276432e+04 	1.241502e+09 	1.194556e+01 	7.421260e+38 	
1.201960e+06 	1.263660e+04 	1.239533e+09 	1.206586e+01 	7.421069e+38 	
1.201980e+06 	1.251015e+04 	1.237569e+09 	1.218736e+01 	7.420877e+38 	
1.201999e+06 	1.238497e+04 	1.235612e+09 	1.231008e+01 	7.420684e+38 	
1.202019e+06 	1.226105e+04 	1.233661e+09 	1.243404e+01 	7.420491e+38 	
1.202039e+06 	1.213836e+04 	1.231715e+09 	1.255925e+01 	7.420296e+38 	
1.202059e+06 	1.201690e+04 	1.229776e+09 	1.268572e+01 	7.420101e+38 	
1.202078e+06 	1.189666e+04 	1.227842e+09 	1.281346e+01 	7.419904e+38 	
1.202098e+06 	1.177762e+04 	1.225914e+09 	1.294249e+01 	7.419707e+38 	
1.202118e+06 	1.165977e+04 	1.223993e+09 	1.307282e+01 	7.419509e+38 	
1.202138e+06 	1.154310e+04 	1.222077e+09 	1.320445e+01 	7.419310e+38 	
1.202158e+06 	1.142760e+04 	1.220167e+09 	1.333742e+01 	7.419110e+38 	
1.202177e+06 	1.131325e+04 	1.218262e+09 	1.347172e+01 	7.418909e+38 	
1.202197e+06 	1.120005e+04 	1.216364e+09 	1.360737e+01 	7.418707e+38 	
1.202217e+06 	1.108798e+04 	1.214471e+09 	1.374439e+01 	7.418503e+38 	
1.202237e+06 	1.097703e+04 	1.212584e+09 	1.388278e+01 	7.418299e+38 	
1.202257e+06 	1.086720e+04 	1.210703e+09 	1.402257e+01 	7.418094e+38 	
1.202277e+06 	1.075846e+04 	1.208828e+09 	1.416377e+01 	7.417889e+38 	
1.202297e+06 	1.065081e+04 	1.206958e+09 	1.430638e+01 	7.417682e+38 	
1.202318e+06 	1.054423e+04 	1.205094e+09 	1.445044e+01 	7.417474e+38 	
1.202338e+06 	1.043872e+04 	1.203236e+09 	1.459594e+01 	7.417264e+38 	
1.202358e+06 	1.033427e+04 	1.201383e+09 	1.474290e+01 	7.417054e+38 	
1.202378e+06 	1.023087e+04 	1.199536e+09 	1.489135e+01 	7.416843e+38 	
1.202398e+06 	1.012849e+04 	1.197695e+09 	1.504129e+01 	7.416631e+38 	
1.202418e+06 	1.002715e+04 	1.195859e+09 	1.519273e+01 	7.416418e+38 	
1.202439e+06 	9.926814e+03 	1.194029e+09 	1.534570e+01 	7.416204e+38 	
1.202459e+06 	9.827485e+03 	1.192204e+09 	1.550021e+01 	7.415989e+38 	
1.202479e+06 	9.729150e+03 	1.190385e+09 	1.565628e+01 	7.415772e+38 	
1.202500e+06 	9.631798e+03 	1.188572e+09 	1.581392e+01 	7.415555e+38 	
1.202520e+06 	9.535421e+03 	1.186764e+09 	1.597314e+01 	7.415337e+38 	
1.202541e+06 	9.440008e+03 	1.184962e+09 	1.613396e+01 	7.415117e+38 	
1.202561e+06 	9.345550e+03 	1.183165e+09 	1.629640e+01 	7.414896e+38 	
1.202582e+06 	9.252037e+03 	1.181374e+09 	1.646048e+01 	7.414675e+38 	
1.202602e+06 	9.159459e+03 	1.179588e+09 	1.662621e+01 	7.414452e+38 	
1.202623e+06 	9.067808e+03 	1.177807e+09 	1.679360e+01 	7.414228e+38 	
1.202643e+06 	8.977074e+03 	1.176032e+09 	1.696268e+01 	7.414003e+38 	
1.202664e+06 	8.887248e+03 	1.174263e+09 	1.713347e+01 	7.413776e+38 	
1.202685e+06 	8.798321e+03 	1.172499e+09 	1.730596e+01 	7.413549e+38 	
1.202705e+06 	8.710284e+03 	1.170740e+09 	1.748020e+01 	7.413321e+38 	
1.202726e+06 	8.623127e+03 	1.168986e+09 	1.765619e+01 	7.413091e+38 	
1.202747e+06 	8.536843e+03 	1.167238e+09 	1.783395e+01 	7.412860e+38 	
1.202768e+06 	8.451422e+03 	1.165496e+09 	1.801349e+01 	7.412628e+38 	
1.202789e+06 	8.366856e+03 	1.163758e+09 	1.819485e+01 	7.412395e+38 	
1.202809e+06 	8.283135e+03 	1.162026e+09 	1.837802e+01 	7.412160e+38 	
1.202830e+06 	8.200253e+03 	1.160300e+09 	1.856305e+01 	7.411925e+38 	
1.202851e+06 	8.118200e+03 	1.158578e+09 	1.874993e+01 	7.411688e+38 	
1.202872e+06 	8.036968e+03 	1.156862e+09 	1.893869e+01 	7.411450e+38 	
1.202893e+06 	7.956549e+03 	1.155151e+09 	1.912935e+01 	7.411211e+38 	
1.202914e+06 	7.876934e+03 	1.153445e+09 	1.932193e+01 	7.410970e+38 	
1.202936e+06 	7.798116e+03 	1.151744e+09 	1.951645e+01 	7.410729e+38 	
1.202957e+06 	7.720087e+03 	1.150049e+09 	1.971292e+01 	7.410486e+38 	
1.202978e+06 	7.642839e+03 	1.148359e+09 	1.991137e+01 	7.410242e+38 	
1.202999e+06 	7.566363e+03 	1.146674e+09 	2.011182e+01 	7.409996e+38 	
1.203020e+06 	7.490653e+03 	1.144994e+09 	2.031428e+01 	7.409749e+38 	
1.203042e+06 	7.415700e+03 	1.143319e+09 	2.051878e+01 	7.409502e+38 	
1.203063e+06 	7.341498e+03 	1.141649e+09 	2.072534e+01 	7.409252e+38 	
1.203084e+06 	7.268038e+03 	1.139985e+09 	2.093398e+01 	7.409002e+38 	
1.203106e+06 	7.195312e+03 	1.138325e+09 	2.114471e+01 	7.408750e+38 	
1.203127e+06 	7.123315e+03 	1.136671e+09 	2.135756e+01 	7.408497e+38 	
1.203149e+06 	7.052038e+03 	1.135021e+09 	2.157256e+01 	7.408242e+38 	
1.203170e+06 	6.981474e+03 	1.133377e+09 	2.178972e+01 	7.407986e+38 	
1.203192e+06 	6.911616e+03 	1.131737e+09 	2.200906e+01 	7.407729e+38 	
1.203213e+06 	6.842458e+03 	1.130103e+09 	2.223060e+01 	7.407470e+38 	
1.203235e+06 	6.773991e+03 	1.128474e+09 	2.245438e+01 	7.407210e+38 	
1.203257e+06 	6.706209e+03 	1.126849e+09 	2.268041e+01 	7.406949e+38 	
1.203279e+06 	6.639106e+03 	1.125230e+09 	2.290871e+01 	7.406687e+38 	
1.203300e+06 	6.572674e+03 	1.123615e+09 	2.313931e+01 	7.406422e+38 	
1.203322e+06 	6.506907e+03 	1.122005e+09 	2.337222e+01 	7.406157e+38 	
1.203344e+06 	6.441798e+03 	1.120401e+09 	2.360748e+01 	7.405890e+38 	
1.203366e+06 	6.377340e+03 	1.118801e+09 	2.384511e+01 	7.405622e+38 	
1.203388e+06 	6.313527e+03 	1.117206e+09 	2.408512e+01 	7.405352e+38 	
1.203410e+06 	6.250353e+03 	1.115616e+09 	2.432755e+01 	7.405081e+38 	
1.203432e+06 	6.187811e+03 	1.114030e+09 	2.457242e+01 	7.404808e+38 	
1.203454e+06 	6.125895e+03 	1.112450e+09 	2.481975e+01 	7.404534e+38 	
1.203476e+06 	6.064598e+03 	1.110874e+09 	2.506956e+01 	7.404259e+38 	
1.203498e+06 	6.003915e+03 	1.109303e+09 	2.532189e+01 	7.403982e+38 	
1.203521e+06 	5.943839e+03 	1.107737e+09 	2.557676e+01 	7.403703e+38 	
1.203543e+06 	5.884364e+03 	1.106176e+09 	2.583419e+01 	7.403423e+38 	
1.203565e+06 	5.825484e+03 	1.104619e+09 	2.609421e+01 	7.403142e+38 	
1.203587e+06 	5.767193e+03 	1.103067e+09 	2.635684e+01 	7.402859e+38 	
1.203610e+06 	5.709486e+03 	1.101520e+09 	2.662212e+01 	7.402574e+38 	
1.203632e+06 	5.652356e+03 	1.099977e+09 	2.689006e+01 	7.402288e+38 	
1.203655e+06 	5.595797e+03 	1.098439e+09 	2.716070e+01 	7.402000e+38 	
1.203677e+06 	5.539805e+03 	1.096906e+09 	2.743405e+01 	7.401711e+38 	
1.203700e+06 	5.484373e+03 	1.095378e+09 	2.771016e+01 	7.401420e+38 	
1.203723e+06 	5.429495e+03 	1.093854e+09 	2.798904e+01 	7.401128e+38 	
1.203745e+06 	5.375167e+03 	1.092334e+09 	2.827073e+01 	7.400834e+38 	
1.203768e+06 	5.321382e+03 	1.090820e+09 	2.855525e+01 	7.400538e+38 	
1.203791e+06 	5.268135e+03 	1.089310e+09 	2.884263e+01 	7.400241e+38 	
1.203814e+06 	5.215421e+03 	1.087804e+09 	2.913290e+01 	7.399942e+38 	
1.203836e+06 	5.163235e+03 	1.086303e+09 	2.942609e+01 	7.399642e+38 	
1.203859e+06 	5.111571e+03 	1.084807e+09 	2.972223e+01 	7.399340e+38 	
1.203882e+06 	5.060424e+03 	1.083315e+09 	3.002134e+01 	7.399036e+38 	
1.203905e+06 	5.009788e+03 	1.081827e+09 	3.032347e+01 	7.398730e+38 	
1.203928e+06 	4.959660e+03 	1.080344e+09 	3.062863e+01 	7.398423e+38 	
1.203952e+06 	4.910033e+03 	1.078866e+09 	3.093685e+01 	7.398114e+38 	
1.203975e+06 	4.860902e+03 	1.077392e+09 	3.124818e+01 	7.397804e+38 	
1.203998e+06 	4.812263e+03 	1.075922e+09 	3.156263e+01 	7.397492e+38 	
1.204021e+06 	4.764111e+03 	1.074457e+09 	3.188025e+01 	7.397178e+38 	
1.204045e+06 	4.716440e+03 	1.072996e+09 	3.220106e+01 	7.396862e+38 	
1.204068e+06 	4.669247e+03 	1.071540e+09 	3.252510e+01 	7.396544e+38 	
1.204091e+06 	4.622526e+03 	1.070088e+09 	3.285239e+01 	7.396225e+38 	
1.204115e+06 	4.576272e+03 	1.068640e+09 	3.318297e+01 	7.395904e+38 	
1.204138e+06 	4.530481e+03 	1.067197e+09 	3.351688e+01 	7.395581e+38 	
1.204162e+06 	4.485148e+03 	1.065758e+09 	3.385414e+01 	7.395256e+38 	
1.204186e+06 	4.440269e+03 	1.064323e+09 	3.419480e+01 	7.394930e+38 	
1.204209e+06 	4.395839e+03 	1.062893e+09 	3.453887e+01 	7.394602e+38 	
1.204233e+06 	4.351854e+03 	1.061467e+09 	3.488641e+01 	7.394271e+38 	
1.204257e+06 	4.308308e+03 	1.060045e+09 	3.523744e+01 	7.393939e+38 	
1.204281e+06 	4.265199e+03 	1.058627e+09 	3.559200e+01 	7.393606e+38 	
1.204305e+06 	4.222520e+03 	1.057214e+09 	3.595012e+01 	7.393270e+38 	
1.204329e+06 	4.180269e+03 	1.055805e+09 	3.631184e+01 	7.392932e+38 	
1.204353e+06 	4.138441e+03 	1.054400e+09 	3.667720e+01 	7.392593e+38 	
1.204377e+06 	4.097031e+03 	1.052999e+09 	3.704623e+01 	7.392251e+38 	
1.204401e+06 	4.056035e+03 	1.051603e+09 	3.741896e+01 	7.391908e+38 	
1.204425e+06 	4.015450e+03 	1.050210e+09 	3.779545e+01 	7.391562e+38 	
1.204450e+06 	3.975271e+03 	1.048822e+09 	3.817572e+01 	7.391215e+38 	
1.204474e+06 	3.935494e+03 	1.047438e+09 	3.855980e+01 	7.390866e+38 	
1.204498e+06 	3.896114e+03 	1.046058e+09 	3.894775e+01 	7.390514e+38 	
1.204523e+06 	3.857129e+03 	1.044682e+09 	3.933960e+01 	7.390161e+38 	
1.204547e+06 	3.818534e+03 	1.043311e+09 	3.973539e+01 	7.389806e+38 	
1.204572e+06 	3.780325e+03 	1.041943e+09 	4.013515e+01 	7.389448e+38 	
1.204596e+06 	3.742499e+03 	1.040579e+09 	4.053893e+01 	7.389089e+38 	
1.204621e+06 	3.705051e+03 	1.039220e+09 	4.094677e+01 	7.388727e+38 	
1.204646e+06 	3.667977e+03 	1.037864e+09 	4.135871e+01 	7.388364e+38 	
1.204671e+06 	3.631275e+03 	1.036513e+09 	4.177478e+01 	7.387998e+38 	
1.204696e+06 	3.594940e+03 	1.035165e+09 	4.219504e+01 	7.387630e+38 	
1.204721e+06 	3.558968e+03 	1.033821e+09 	4.261952e+01 	7.387261e+38 	
1.204746e+06 	3.523357e+03 	1.032482e+09 	4.304826e+01 	7.386889e+38 	
1.204771e+06 	3.488101e+03 	1.031146e+09 	4.348132e+01 	7.386514e+38 	
1.204796e+06 	3.453199e+03 	1.029814e+09 	4.391872e+01 	7.386138e+38 	
1.204821e+06 	3.418646e+03 	1.028487e+09 	4.436052e+01 	7.385760e+38 	
1.204846e+06 	3.384438e+03 	1.027163e+09 	4.480676e+01 	7.385379e+38 	
1.204872e+06 	3.350573e+03 	1.025843e+09 	4.525748e+01 	7.384996e+38 	
1.204897e+06 	3.317047e+03 	1.024527e+09 	4.571273e+01 	7.384611e+38 	
1.204923e+06 	3.283856e+03 	1.023214e+09 	4.617255e+01 	7.384224e+38 	
1.204948e+06 	3.250997e+03 	1.021906e+09 	4.663699e+01 	7.383834e+38 	
1.204974e+06 	3.218467e+03 	1.020601e+09 	4.710610e+01 	7.383442e+38 	
1.204999e+06 	3.186262e+03 	1.019300e+09 	4.757992e+01 	7.383048e+38 	
1.205025e+06 	3.154380e+03 	1.018003e+09 	4.805850e+01 	7.382652e+38 	
1.205051e+06 	3.122817e+03 	1.016710e+09 	4.854189e+01 	7.382253e+38 	
1.205077e+06 	3.091570e+03 	1.015421e+09 	4.903013e+01 	7.381852e+38 	
1.205103e+06 	3.060635e+03 	1.014135e+09 	4.952328e+01 	7.381449e+38 	
1.205129e+06 	3.030010e+03 	1.012853e+09 	5.002138e+01 	7.381043e+38 	
1.205155e+06 	2.999691e+03 	1.011575e+09 	5.052448e+01 	7.380635e+38 	
1.205181e+06 	2.969675e+03 	1.010300e+09 	5.103264e+01 	7.380224e+38 	
1.205207e+06 	2.939960e+03 	1.009030e+09 	5.154590e+01 	7.379811e+38 	
1.205234e+06 	2.910543e+03 	1.007762e+09 	5.206432e+01 	7.379396e+38 	
1.205260e+06 	2.881419e+03 	1.006499e+09 	5.258794e+01 	7.378978e+38 	
1.205287e+06 	2.852587e+03 	1.005239e+09 	5.311683e+01 	7.378558e+38 	
1.205313e+06 	2.824044e+03 	1.003983e+09 	5.365102e+01 	7.378135e+38 	
1.205340e+06 	2.795786e+03 	1.002730e+09 	5.419058e+01 	7.377710e+38 	
1.205366e+06 	2.767811e+03 	1.001481e+09 	5.473556e+01 	7.377282e+38 	
1.205393e+06 	2.740116e+03 	1.000236e+09 	5.528601e+01 	7.376851e+38 	
1.205420e+06 	2.712698e+03 	9.989942e+08 	5.584199e+01 	7.376419e+38 	
1.205447e+06 	2.685554e+03 	9.977560e+08 	5.640355e+01 	7.375983e+38 	
1.205474e+06 	2.658682e+03 	9.965213e+08 	5.697075e+01 	7.375545e+38 	
1.205501e+06 	2.632079e+03 	9.952901e+08 	5.754364e+01 	7.375104e+38 	
1.205528e+06 	2.605742e+03 	9.940625e+08 	5.812229e+01 	7.374661e+38 	
1.205555e+06 	2.579668e+03 	9.928383e+08 	5.870675e+01 	7.374215e+38 	
1.205583e+06 	2.553856e+03 	9.916176e+08 	5.929708e+01 	7.373767e+38 	
1.205610e+06 	2.528302e+03 	9.904003e+08 	5.989333e+01 	7.373316e+38 	
1.205637e+06 	2.503003e+03 	9.891866e+08 	6.049557e+01 	7.372862e+38 	
1.205665e+06 	2.477957e+03 	9.879763e+08 	6.110386e+01 	7.372405e+38 	
1.205693e+06 	2.453163e+03 	9.867695e+08 	6.171826e+01 	7.371946e+38 	
1.205720e+06 	2.428616e+03 	9.855661e+08 	6.233882e+01 	7.371484e+38 	
1.205748e+06 	2.404315e+03 	9.843661e+08 	6.296561e+01 	7.371019e+38 	
1.205776e+06 	2.380257e+03 	9.831695e+08 	6.359870e+01 	7.370551e+38 	
1.205804e+06 	2.356440e+03 	9.819762e+08 	6.423814e+01 	7.370081e+38 	
1.205832e+06 	2.332861e+03 	9.807863e+08 	6.488399e+01 	7.369607e+38 	
1.205860e+06 	2.309518e+03 	9.795997e+08 	6.553634e+01 	7.369131e+38 	
1.205888e+06 	2.286408e+03 	9.784164e+08 	6.619523e+01 	7.368652e+38 	
