r (cm)        	 rho (g/cm3) 	 T (K)       		 Linf = 1.785748e+36
1.20000043e+06 	 5.066997e+05 	 3.813801e+08 	
1.20002799e+06 	 4.223445e+05 	 3.610715e+08 	
1.20006218e+06 	 3.320610e+05 	 3.358399e+08 	
1.20009034e+06 	 2.686556e+05 	 3.150248e+08 	
1.20011850e+06 	 2.142628e+05 	 2.941740e+08 	
1.20014680e+06 	 1.678668e+05 	 2.731739e+08 	
1.20017007e+06 	 1.353949e+05 	 2.558776e+08 	
1.20019334e+06 	 1.075893e+05 	 2.385516e+08 	
1.20021672e+06 	 8.394293e+04 	 2.211171e+08 	
1.20023590e+06 	 6.746278e+04 	 2.067874e+08 	
1.20025507e+06 	 5.338138e+04 	 1.924338e+08 	
1.20027432e+06 	 4.144968e+04 	 1.780068e+08 	
1.20029006e+06 	 3.317583e+04 	 1.661795e+08 	
1.20030581e+06 	 2.612418e+04 	 1.543335e+08 	
1.20032159e+06 	 2.017454e+04 	 1.424437e+08 	
1.20033447e+06 	 1.607329e+04 	 1.327268e+08 	
1.20034735e+06 	 1.258804e+04 	 1.229956e+08 	
1.20036023e+06 	 9.661985e+03 	 1.132451e+08 	
1.20037070e+06 	 7.658796e+03 	 1.053058e+08 	
1.20038118e+06 	 5.962066e+03 	 9.735616e+07 	
1.20039164e+06 	 4.545585e+03 	 8.940658e+07 	
1.20040011e+06 	 3.583423e+03 	 8.296145e+07 	
1.20040858e+06 	 2.771401e+03 	 7.650910e+07 	
1.20041702e+06 	 2.097760e+03 	 7.007171e+07 	
1.20042383e+06 	 1.644175e+03 	 6.487827e+07 	
1.20043063e+06 	 1.262852e+03 	 5.968003e+07 	
1.20043739e+06 	 9.486829e+02 	 5.450746e+07 	
1.20044282e+06 	 7.391636e+02 	 5.035758e+07 	
1.20044824e+06 	 5.637315e+02 	 4.620475e+07 	
1.20045361e+06 	 4.202471e+02 	 4.208442e+07 	
1.20045790e+06 	 3.255396e+02 	 3.879931e+07 	
1.20046218e+06 	 2.465568e+02 	 3.551261e+07 	
1.20046642e+06 	 1.824399e+02 	 3.226202e+07 	
1.20046977e+06 	 1.406052e+02 	 2.969038e+07 	
1.20047311e+06 	 1.058400e+02 	 2.711826e+07 	
1.20047641e+06 	 7.784202e+01 	 2.458566e+07 	
1.20047895e+06 	 6.008156e+01 	 2.263568e+07 	
1.20048149e+06 	 4.530344e+01 	 2.068643e+07 	
1.20048394e+06 	 3.358405e+01 	 1.880440e+07 	
1.20048585e+06 	 2.604741e+01 	 1.734380e+07 	
1.20048776e+06 	 1.975268e+01 	 1.588608e+07 	
1.20048921e+06 	 1.572728e+01 	 1.478162e+07 	
1.20049065e+06 	 1.229921e+01 	 1.368154e+07 	
1.20049185e+06 	 9.891689e+00 	 1.278183e+07 	
1.20049298e+06 	 7.916371e+00 	 1.193108e+07 	
1.20049385e+06 	 6.598479e+00 	 1.128568e+07 	
1.20049472e+06 	 5.437661e+00 	 1.064761e+07 	
1.20049559e+06 	 4.423366e+00 	 1.001959e+07 	
1.20049629e+06 	 3.707894e+00 	 9.525076e+06 	
1.20049698e+06 	 3.074873e+00 	 9.042062e+06 	
1.20049768e+06 	 2.519096e+00 	 8.573841e+06 	
1.20049838e+06 	 2.035500e+00 	 8.124472e+06 	
1.20049910e+06 	 1.606087e+00 	 7.684662e+06 	
1.20049982e+06 	 1.243504e+00 	 7.276019e+06 	
1.20049998e+06 	 1.171629e+00 	 7.190193e+06 	
1.20050000e+06 	 1.164607e+00 	 7.181713e+06 	
1.20051667e+06 	 8.752864e-05 	 5.088754e+06 	
1.20053334e+06 	 2.582763e-09 	 5.078190e+06 	
1.37714235e+06 	 1.000000e-20 	 4.664083e+06 	
1.57973210e+06 	 1.000000e-20 	 4.296389e+06 	
1.81212457e+06 	 1.000000e-20 	 3.966782e+06 	
2.07870403e+06 	 1.000000e-20 	 3.669167e+06 	
2.38449966e+06 	 1.000000e-20 	 3.398902e+06 	
2.73528052e+06 	 1.000000e-20 	 3.152355e+06 	
3.13766433e+06 	 1.000000e-20 	 2.926613e+06 	
3.59924233e+06 	 1.000000e-20 	 2.719297e+06 	
4.12872251e+06 	 1.000000e-20 	 2.528431e+06 	
4.73609389e+06 	 1.000000e-20 	 2.352343e+06 	
5.43281493e+06 	 1.000000e-20 	 2.189610e+06 	
6.23202976e+06 	 1.000000e-20 	 2.038997e+06 	
7.14881611e+06 	 1.000000e-20 	 1.899431e+06 	
8.20046980e+06 	 1.000000e-20 	 1.769966e+06 	
9.40683099e+06 	 1.000000e-20 	 1.649763e+06 	
1.07906585e+07 	 1.000000e-20 	 1.538074e+06 	
1.23780592e+07 	 1.000000e-20 	 1.434228e+06 	
1.41989805e+07 	 1.000000e-20 	 1.337621e+06 	
1.62877754e+07 	 1.000000e-20 	 1.247704e+06 	
1.86838503e+07 	 1.000000e-20 	 1.163979e+06 	
2.14324089e+07 	 1.000000e-20 	 1.085992e+06 	
2.45853047e+07 	 1.000000e-20 	 1.013326e+06 	
2.82020191e+07 	 1.000000e-20 	 9.456002e+05 	
3.23507840e+07 	 1.000000e-20 	 8.824642e+05 	
3.71098687e+07 	 1.000000e-20 	 8.235950e+05 	
4.25690565e+07 	 1.000000e-20 	 7.686944e+05 	
4.88313389e+07 	 1.000000e-20 	 7.174873e+05 	
5.60148581e+07 	 1.000000e-20 	 6.697186e+05 	
6.42551361e+07 	 1.000000e-20 	 6.251526e+05 	
7.37076314e+07 	 1.000000e-20 	 5.835702e+05 	
8.45506719e+07 	 1.000000e-20 	 5.447683e+05 	
9.69888189e+07 	 1.000000e-20 	 5.085583e+05 	
1.11256727e+08 	 1.000000e-20 	 4.747648e+05 	
1.27623569e+08 	 1.000000e-20 	 4.432247e+05 	
1.46398118e+08 	 1.000000e-20 	 4.137864e+05 	
1.67934568e+08 	 1.000000e-20 	 3.863085e+05 	
1.92639219e+08 	 1.000000e-20 	 3.606595e+05 	
2.20978141e+08 	 1.000000e-20 	 3.367169e+05 	
2.53485968e+08 	 1.000000e-20 	 3.143666e+05 	
2.90775982e+08 	 1.000000e-20 	 2.935021e+05 	
3.33551685e+08 	 1.000000e-20 	 2.740242e+05 	
3.82620070e+08 	 1.000000e-20 	 2.558405e+05 	
4.38906845e+08 	 1.000000e-20 	 2.388646e+05 	
5.03473900e+08 	 1.000000e-20 	 2.230162e+05 	
5.77539336e+08 	 1.000000e-20 	 2.082200e+05 	
6.62500449e+08 	 1.000000e-20 	 1.944062e+05 	
7.59960089e+08 	 1.000000e-20 	 1.815094e+05 	
8.71756898e+08 	 1.000000e-20 	 1.694686e+05 	
1.00000000e+09 	 1.000000e-20 	 1.582269e+05 	
