r (cm)        	 rho (g/cm3) 	 T (K)       		 Linf = 3.080960e+38
1.19999238e+06 	 1.322468e+05 	 1.234229e+09 	
1.20005487e+06 	 1.210638e+05 	 1.206554e+09 	
1.20016187e+06 	 1.037178e+05 	 1.159612e+09 	
1.20026887e+06 	 8.846568e+04 	 1.113253e+09 	
1.20035764e+06 	 7.725935e+04 	 1.075253e+09 	
1.20044640e+06 	 6.724999e+04 	 1.037685e+09 	
1.20053516e+06 	 5.833676e+04 	 1.000562e+09 	
1.20062393e+06 	 5.042463e+04 	 9.639001e+08 	
1.20071094e+06 	 4.355394e+04 	 9.284236e+08 	
1.20079796e+06 	 3.748041e+04 	 8.934208e+08 	
1.20088497e+06 	 3.213002e+04 	 8.589080e+08 	
1.20095614e+06 	 2.824304e+04 	 8.310555e+08 	
1.20102731e+06 	 2.475795e+04 	 8.035513e+08 	
1.20109849e+06 	 2.164129e+04 	 7.764052e+08 	
1.20116966e+06 	 1.886158e+04 	 7.496269e+08 	
1.20124083e+06 	 1.638928e+04 	 7.232268e+08 	
1.20131122e+06 	 1.421916e+04 	 6.974962e+08 	
1.20138162e+06 	 1.229769e+04 	 6.721559e+08 	
1.20145201e+06 	 1.060150e+04 	 6.472164e+08 	
1.20151042e+06 	 9.349717e+03 	 6.268385e+08 	
1.20156882e+06 	 8.226392e+03 	 6.067499e+08 	
1.20162722e+06 	 7.220645e+03 	 5.869569e+08 	
1.20168562e+06 	 6.322283e+03 	 5.674658e+08 	
1.20174402e+06 	 5.521774e+03 	 5.482828e+08 	
1.20180232e+06 	 4.811332e+03 	 5.294452e+08 	
1.20186062e+06 	 4.181324e+03 	 5.109274e+08 	
1.20191893e+06 	 3.624101e+03 	 4.927359e+08 	
1.20196711e+06 	 3.213511e+03 	 4.779541e+08 	
1.20201529e+06 	 2.844045e+03 	 4.634030e+08 	
1.20206347e+06 	 2.512220e+03 	 4.490860e+08 	
1.20211164e+06 	 2.214781e+03 	 4.350065e+08 	
1.20215982e+06 	 1.948695e+03 	 4.211680e+08 	
1.20220800e+06 	 1.711140e+03 	 4.075740e+08 	
1.20225659e+06 	 1.497778e+03 	 3.941138e+08 	
1.20230519e+06 	 1.308281e+03 	 3.809089e+08 	
1.20235378e+06 	 1.140346e+03 	 3.679624e+08 	
1.20239408e+06 	 1.015900e+03 	 3.574234e+08 	
1.20243438e+06 	 9.036972e+02 	 3.470659e+08 	
1.20247469e+06 	 8.026922e+02 	 3.368916e+08 	
1.20251499e+06 	 7.119111e+02 	 3.269021e+08 	
1.20255529e+06 	 6.304496e+02 	 3.170987e+08 	
1.20259559e+06 	 5.574690e+02 	 3.074830e+08 	
1.20263589e+06 	 4.921932e+02 	 2.980561e+08 	
1.20267765e+06 	 4.319207e+02 	 2.884891e+08 	
1.20271941e+06 	 3.784152e+02 	 2.791273e+08 	
1.20275395e+06 	 3.387850e+02 	 2.715387e+08 	
1.20278849e+06 	 3.029706e+02 	 2.640919e+08 	
1.20282304e+06 	 2.706448e+02 	 2.567872e+08 	
1.20285758e+06 	 2.415040e+02 	 2.496251e+08 	
1.20289212e+06 	 2.152670e+02 	 2.426060e+08 	
1.20292667e+06 	 1.916741e+02 	 2.357300e+08 	
1.20296121e+06 	 1.704851e+02 	 2.289974e+08 	
1.20299576e+06 	 1.514789e+02 	 2.224082e+08 	
1.20303030e+06 	 1.344517e+02 	 2.159624e+08 	
1.20306683e+06 	 1.183931e+02 	 2.093028e+08 	
1.20309721e+06 	 1.064131e+02 	 2.038840e+08 	
1.20312760e+06 	 9.557236e+01 	 1.985758e+08 	
1.20315799e+06 	 8.577170e+01 	 1.933780e+08 	
1.20318838e+06 	 7.691963e+01 	 1.882902e+08 	
1.20321877e+06 	 6.893176e+01 	 1.833122e+08 	
1.20324916e+06 	 6.173033e+01 	 1.784435e+08 	
1.20327955e+06 	 5.524378e+01 	 1.736837e+08 	
1.20330994e+06 	 4.940637e+01 	 1.690321e+08 	
1.20334033e+06 	 4.415777e+01 	 1.644883e+08 	
1.20337072e+06 	 3.944267e+01 	 1.600516e+08 	
1.20340111e+06 	 3.521043e+01 	 1.557213e+08 	
1.20343149e+06 	 3.141477e+01 	 1.514966e+08 	
1.20345995e+06 	 2.821884e+01 	 1.476357e+08 	
1.20348841e+06 	 2.533688e+01 	 1.438660e+08 	
1.20351686e+06 	 2.273980e+01 	 1.401867e+08 	
1.20354532e+06 	 2.040099e+01 	 1.365970e+08 	
1.20357377e+06 	 1.829611e+01 	 1.330961e+08 	
1.20360223e+06 	 1.640293e+01 	 1.296831e+08 	
1.20363068e+06 	 1.470119e+01 	 1.263569e+08 	
1.20365914e+06 	 1.317239e+01 	 1.231168e+08 	
1.20368759e+06 	 1.179972e+01 	 1.199616e+08 	
1.20371605e+06 	 1.056789e+01 	 1.168904e+08 	
1.20374451e+06 	 9.462980e+00 	 1.139019e+08 	
1.20377296e+06 	 8.472393e+00 	 1.109952e+08 	
1.20380142e+06 	 7.584689e+00 	 1.081691e+08 	
1.20382987e+06 	 6.789511e+00 	 1.054223e+08 	
1.20385833e+06 	 6.077487e+00 	 1.027537e+08 	
1.20388678e+06 	 5.440146e+00 	 1.001620e+08 	
1.20391695e+06 	 4.837509e+00 	 9.749703e+07 	
1.20394712e+06 	 4.302017e+00 	 9.491555e+07 	
1.20397729e+06 	 3.826323e+00 	 9.241601e+07 	
1.20400745e+06 	 3.403850e+00 	 8.999681e+07 	
1.20403762e+06 	 3.028718e+00 	 8.765633e+07 	
1.20406779e+06 	 2.695673e+00 	 8.539295e+07 	
1.20409796e+06 	 2.400025e+00 	 8.320499e+07 	
1.20412812e+06 	 2.137595e+00 	 8.109080e+07 	
1.20415829e+06 	 1.904653e+00 	 7.904868e+07 	
1.20418846e+06 	 1.697883e+00 	 7.707694e+07 	
1.20421863e+06 	 1.514332e+00 	 7.517389e+07 	
1.20424879e+06 	 1.351373e+00 	 7.333781e+07 	
1.20428369e+06 	 1.185516e+00 	 7.129530e+07 	
1.20431858e+06 	 1.040921e+00 	 6.933747e+07 	
1.20435348e+06 	 9.148180e-01 	 6.746168e+07 	
1.20438837e+06 	 8.047972e-01 	 6.566530e+07 	
1.20442327e+06 	 7.087611e-01 	 6.394571e+07 	
1.20445816e+06 	 6.248860e-01 	 6.230032e+07 	
1.20449306e+06 	 5.515870e-01 	 6.072656e+07 	
1.20452795e+06 	 4.874868e-01 	 5.922190e+07 	
1.20456855e+06 	 4.229132e-01 	 5.755506e+07 	
1.20460914e+06 	 3.675590e-01 	 5.597445e+07 	
1.20464974e+06 	 3.200517e-01 	 5.447625e+07 	
1.20469033e+06 	 2.792272e-01 	 5.305673e+07 	
1.20473093e+06 	 2.440978e-01 	 5.171224e+07 	
1.20477872e+06 	 2.089115e-01 	 5.022079e+07 	
1.20482651e+06 	 1.793182e-01 	 4.882277e+07 	
1.20487430e+06 	 1.543740e-01 	 4.751277e+07 	
1.20492209e+06 	 1.333003e-01 	 4.628554e+07 	
1.20497758e+06 	 1.128436e-01 	 4.495785e+07 	
1.20503307e+06 	 9.592164e-02 	 4.372753e+07 	
1.20508856e+06 	 8.187575e-02 	 4.258749e+07 	
1.20515038e+06 	 6.897032e-02 	 4.141552e+07 	
1.20521220e+06 	 5.839609e-02 	 4.033864e+07 	
1.20528098e+06 	 4.881390e-02 	 3.924251e+07 	
1.20534975e+06 	 4.105518e-02 	 3.824387e+07 	
1.20543240e+06 	 3.361123e-02 	 3.715971e+07 	
1.20551504e+06 	 2.774920e-02 	 3.618811e+07 	
1.20559768e+06 	 2.309602e-02 	 3.531598e+07 	
1.20568974e+06 	 1.899836e-02 	 3.444746e+07 	
1.20578179e+06 	 1.577220e-02 	 3.367394e+07 	
1.20588396e+06 	 1.296077e-02 	 3.291197e+07 	
1.20598612e+06 	 1.075884e-02 	 3.223766e+07 	
1.20609968e+06 	 8.845230e-03 	 3.157622e+07 	
1.20621323e+06 	 7.351755e-03 	 3.099394e+07 	
1.20634026e+06 	 6.049874e-03 	 3.042199e+07 	
1.20646728e+06 	 5.036869e-03 	 2.992079e+07 	
1.20661062e+06 	 4.148690e-03 	 2.942628e+07 	
1.20675397e+06 	 3.459757e-03 	 2.899473e+07 	
1.20691777e+06 	 2.850362e-03 	 2.856539e+07 	
1.20708157e+06 	 2.379638e-03 	 2.819225e+07 	
1.20726822e+06 	 1.965538e-03 	 2.782317e+07 	
1.20745487e+06 	 1.646109e-03 	 2.750303e+07 	
1.20769032e+06 	 1.339334e-03 	 2.715547e+07 	
1.20792578e+06 	 1.108631e-03 	 2.685829e+07 	
1.20816123e+06 	 9.316248e-04 	 2.660132e+07 	
1.20849548e+06 	 7.443502e-04 	 2.629090e+07 	
1.20882973e+06 	 6.084029e-04 	 2.603008e+07 	
1.20898299e+06 	 5.583768e-04 	 2.592381e+07 	
1.20899831e+06 	 5.537244e-04 	 2.591358e+07 	
1.20899985e+06 	 5.532624e-04 	 2.591257e+07 	
1.20900000e+06 	 5.532163e-04 	 2.591246e+07 	
1.20910005e+06 	 5.243032e-04 	 2.584748e+07 	
1.20920010e+06 	 4.976704e-04 	 2.578528e+07 	
1.20930015e+06 	 4.730802e-04 	 2.572567e+07 	
1.20940020e+06 	 4.503364e-04 	 2.566849e+07 	
1.20950025e+06 	 4.292736e-04 	 2.561358e+07 	
1.20960030e+06 	 4.097305e-04 	 2.556080e+07 	
1.20970035e+06 	 3.915587e-04 	 2.550999e+07 	
1.20980040e+06 	 3.746399e-04 	 2.546105e+07 	
1.20990045e+06 	 3.588695e-04 	 2.541387e+07 	
1.21000050e+06 	 3.441465e-04 	 2.536833e+07 	
1.21010055e+06 	 3.303746e-04 	 2.532435e+07 	
1.21020060e+06 	 3.174777e-04 	 2.528182e+07 	
1.21030065e+06 	 3.053895e-04 	 2.524067e+07 	
1.21040070e+06 	 2.940437e-04 	 2.520083e+07 	
1.21050075e+06 	 2.833801e-04 	 2.516222e+07 	
1.21060080e+06 	 2.733423e-04 	 2.512477e+07 	
1.21070085e+06 	 2.638870e-04 	 2.508843e+07 	
1.21080090e+06 	 2.549719e-04 	 2.505314e+07 	
1.21090095e+06 	 2.465572e-04 	 2.501884e+07 	
1.21100100e+06 	 2.386025e-04 	 2.498548e+07 	
1.21110105e+06 	 2.310744e-04 	 2.495302e+07 	
1.21120110e+06 	 2.239468e-04 	 2.492141e+07 	
1.21130115e+06 	 2.171935e-04 	 2.489061e+07 	
1.21140120e+06 	 2.107882e-04 	 2.486059e+07 	
1.21150125e+06 	 2.047072e-04 	 2.483131e+07 	
1.21160130e+06 	 1.989262e-04 	 2.480273e+07 	
1.21170135e+06 	 1.934266e-04 	 2.477482e+07 	
1.21180140e+06 	 1.881924e-04 	 2.474755e+07 	
1.21190145e+06 	 1.832077e-04 	 2.472090e+07 	
1.21200150e+06 	 1.784567e-04 	 2.469484e+07 	
1.21210155e+06 	 1.739245e-04 	 2.466934e+07 	
1.21220160e+06 	 1.695967e-04 	 2.464437e+07 	
1.21230165e+06 	 1.654611e-04 	 2.461992e+07 	
1.21240170e+06 	 1.615077e-04 	 2.459596e+07 	
1.21250175e+06 	 1.577266e-04 	 2.457249e+07 	
1.21260180e+06 	 1.541077e-04 	 2.454946e+07 	
1.21270185e+06 	 1.506421e-04 	 2.452688e+07 	
1.21280190e+06 	 1.473207e-04 	 2.450472e+07 	
1.21290195e+06 	 1.441338e-04 	 2.448295e+07 	
1.21300200e+06 	 1.410753e-04 	 2.446158e+07 	
1.21310205e+06 	 1.381391e-04 	 2.444058e+07 	
1.21320210e+06 	 1.353193e-04 	 2.441995e+07 	
1.21330215e+06 	 1.326100e-04 	 2.439966e+07 	
1.21340220e+06 	 1.300050e-04 	 2.437971e+07 	
1.21350225e+06 	 1.274987e-04 	 2.436008e+07 	
1.21360230e+06 	 1.250867e-04 	 2.434076e+07 	
1.21370235e+06 	 1.227625e-04 	 2.432174e+07 	
1.21380240e+06 	 1.205227e-04 	 2.430301e+07 	
1.21390245e+06 	 1.183637e-04 	 2.428456e+07 	
1.21400250e+06 	 1.162819e-04 	 2.426638e+07 	
1.21410255e+06 	 1.142738e-04 	 2.424846e+07 	
1.21420260e+06 	 1.123360e-04 	 2.423080e+07 	
1.21430265e+06 	 1.104648e-04 	 2.421338e+07 	
1.21440270e+06 	 1.086578e-04 	 2.419620e+07 	
1.21450275e+06 	 1.069110e-04 	 2.417924e+07 	
1.21460280e+06 	 1.052214e-04 	 2.416251e+07 	
1.21470285e+06 	 1.035869e-04 	 2.414599e+07 	
1.21480290e+06 	 1.020054e-04 	 2.412968e+07 	
1.21490295e+06 	 1.004749e-04 	 2.411357e+07 	
1.21500300e+06 	 9.899324e-05 	 2.409766e+07 	
1.21510305e+06 	 9.755850e-05 	 2.408194e+07 	
1.21520310e+06 	 9.616859e-05 	 2.406640e+07 	
1.21530315e+06 	 9.482145e-05 	 2.405104e+07 	
1.21540320e+06 	 9.351528e-05 	 2.403585e+07 	
1.21550325e+06 	 9.224874e-05 	 2.402084e+07 	
1.21560330e+06 	 9.101926e-05 	 2.400598e+07 	
1.21570335e+06 	 8.982567e-05 	 2.399128e+07 	
1.21580340e+06 	 8.866676e-05 	 2.397674e+07 	
1.21590345e+06 	 8.754137e-05 	 2.396234e+07 	
1.21600350e+06 	 8.644830e-05 	 2.394809e+07 	
1.21610355e+06 	 8.538637e-05 	 2.393399e+07 	
1.21620360e+06 	 8.435440e-05 	 2.392002e+07 	
1.21630365e+06 	 8.335120e-05 	 2.390619e+07 	
1.21640370e+06 	 8.237558e-05 	 2.389248e+07 	
1.21650375e+06 	 8.142656e-05 	 2.387891e+07 	
1.21660380e+06 	 8.050359e-05 	 2.386545e+07 	
1.21670385e+06 	 7.960471e-05 	 2.385212e+07 	
1.21680390e+06 	 7.872925e-05 	 2.383890e+07 	
1.21690395e+06 	 7.787652e-05 	 2.382580e+07 	
1.21700400e+06 	 7.704587e-05 	 2.381281e+07 	
1.21710405e+06 	 7.623662e-05 	 2.379992e+07 	
1.21720410e+06 	 7.544809e-05 	 2.378714e+07 	
1.21730415e+06 	 7.467961e-05 	 2.377447e+07 	
1.21740420e+06 	 7.393052e-05 	 2.376189e+07 	
1.21750425e+06 	 7.320012e-05 	 2.374942e+07 	
1.21760430e+06 	 7.248777e-05 	 2.373704e+07 	
1.21770435e+06 	 7.179277e-05 	 2.372475e+07 	
1.21780440e+06 	 7.111446e-05 	 2.371255e+07 	
1.21790445e+06 	 7.045270e-05 	 2.370044e+07 	
1.21800450e+06 	 6.980644e-05 	 2.368842e+07 	
1.21810455e+06 	 6.917511e-05 	 2.367648e+07 	
1.21820460e+06 	 6.855834e-05 	 2.366463e+07 	
1.21830465e+06 	 6.795573e-05 	 2.365285e+07 	
1.21840470e+06 	 6.736692e-05 	 2.364116e+07 	
1.21850475e+06 	 6.679151e-05 	 2.362954e+07 	
1.21860480e+06 	 6.622912e-05 	 2.361799e+07 	
1.21870485e+06 	 6.567938e-05 	 2.360652e+07 	
1.21880490e+06 	 6.514190e-05 	 2.359512e+07 	
1.21890495e+06 	 6.461630e-05 	 2.358379e+07 	
1.21900500e+06 	 6.410220e-05 	 2.357253e+07 	
1.21910505e+06 	 6.359922e-05 	 2.356134e+07 	
1.21920510e+06 	 6.310698e-05 	 2.355021e+07 	
1.21930515e+06 	 6.262538e-05 	 2.353915e+07 	
1.21940520e+06 	 6.215402e-05 	 2.352815e+07 	
1.21950525e+06 	 6.169228e-05 	 2.351721e+07 	
1.21960530e+06 	 6.123992e-05 	 2.350634e+07 	
1.21970535e+06 	 6.079675e-05 	 2.349551e+07 	
1.21980540e+06 	 6.036256e-05 	 2.348475e+07 	
1.21990545e+06 	 5.993712e-05 	 2.347404e+07 	
1.22000550e+06 	 5.952022e-05 	 2.346339e+07 	
1.22010555e+06 	 5.911166e-05 	 2.345279e+07 	
1.22020560e+06 	 5.871122e-05 	 2.344225e+07 	
1.22030565e+06 	 5.831869e-05 	 2.343176e+07 	
1.22040570e+06 	 5.793385e-05 	 2.342131e+07 	
1.22050575e+06 	 5.755650e-05 	 2.341092e+07 	
1.22060580e+06 	 5.718641e-05 	 2.340058e+07 	
1.22070585e+06 	 5.682339e-05 	 2.339028e+07 	
1.22080590e+06 	 5.646720e-05 	 2.338003e+07 	
1.22090595e+06 	 5.611765e-05 	 2.336983e+07 	
1.22100600e+06 	 5.577452e-05 	 2.335967e+07 	
1.22110605e+06 	 5.543797e-05 	 2.334956e+07 	
1.22120610e+06 	 5.510742e-05 	 2.333949e+07 	
1.22130615e+06 	 5.478272e-05 	 2.332946e+07 	
1.22140620e+06 	 5.446377e-05 	 2.331947e+07 	
1.22150625e+06 	 5.415045e-05 	 2.330953e+07 	
1.22160630e+06 	 5.384263e-05 	 2.329962e+07 	
1.22170635e+06 	 5.354020e-05 	 2.328975e+07 	
1.22180640e+06 	 5.324304e-05 	 2.327992e+07 	
1.22190645e+06 	 5.295104e-05 	 2.327013e+07 	
1.22200650e+06 	 5.266407e-05 	 2.326037e+07 	
1.22210655e+06 	 5.238201e-05 	 2.325065e+07 	
1.22220660e+06 	 5.210475e-05 	 2.324097e+07 	
1.22230665e+06 	 5.183217e-05 	 2.323132e+07 	
1.22240670e+06 	 5.156416e-05 	 2.322171e+07 	
1.22250675e+06 	 5.130058e-05 	 2.321213e+07 	
1.22260680e+06 	 5.104133e-05 	 2.320258e+07 	
1.22270685e+06 	 5.078628e-05 	 2.319306e+07 	
1.22280690e+06 	 5.053532e-05 	 2.318358e+07 	
1.22290695e+06 	 5.028840e-05 	 2.317413e+07 	
1.22300700e+06 	 5.004559e-05 	 2.316471e+07 	
1.22310705e+06 	 4.980648e-05 	 2.315532e+07 	
1.22320710e+06 	 4.957101e-05 	 2.314596e+07 	
1.22330715e+06 	 4.933912e-05 	 2.313662e+07 	
1.22340720e+06 	 4.911072e-05 	 2.312732e+07 	
1.22350725e+06 	 4.888578e-05 	 2.311804e+07 	
1.22360730e+06 	 4.866421e-05 	 2.310879e+07 	
1.22370735e+06 	 4.844595e-05 	 2.309957e+07 	
1.22380740e+06 	 4.823095e-05 	 2.309037e+07 	
1.22390745e+06 	 4.801912e-05 	 2.308120e+07 	
1.22400750e+06 	 4.781042e-05 	 2.307206e+07 	
1.22410755e+06 	 4.760477e-05 	 2.306294e+07 	
1.22420760e+06 	 4.740212e-05 	 2.305385e+07 	
1.22430765e+06 	 4.720239e-05 	 2.304478e+07 	
1.22440770e+06 	 4.700552e-05 	 2.303574e+07 	
1.22450775e+06 	 4.681145e-05 	 2.302671e+07 	
1.22460780e+06 	 4.662011e-05 	 2.301772e+07 	
1.22470785e+06 	 4.643144e-05 	 2.300874e+07 	
1.22480790e+06 	 4.624537e-05 	 2.299979e+07 	
1.22490795e+06 	 4.606184e-05 	 2.299086e+07 	
1.22500800e+06 	 4.588079e-05 	 2.298195e+07 	
1.22510805e+06 	 4.570214e-05 	 2.297306e+07 	
1.22520810e+06 	 4.552586e-05 	 2.296420e+07 	
1.22530815e+06 	 4.535416e-05 	 2.295532e+07 	
1.22540820e+06 	 4.518248e-05 	 2.294650e+07 	
1.22550825e+06 	 4.501302e-05 	 2.293769e+07 	
1.22560830e+06 	 4.484575e-05 	 2.292891e+07 	
1.22570835e+06 	 4.468062e-05 	 2.292014e+07 	
1.22580840e+06 	 4.451758e-05 	 2.291139e+07 	
1.22590845e+06 	 4.435658e-05 	 2.290266e+07 	
1.22600850e+06 	 4.419759e-05 	 2.289395e+07 	
1.22610855e+06 	 4.404056e-05 	 2.288526e+07 	
1.22620860e+06 	 4.388546e-05 	 2.287658e+07 	
1.22630865e+06 	 4.373223e-05 	 2.286792e+07 	
1.22640870e+06 	 4.358086e-05 	 2.285928e+07 	
1.22650875e+06 	 4.343129e-05 	 2.285066e+07 	
1.22660880e+06 	 4.328349e-05 	 2.284205e+07 	
1.22670885e+06 	 4.313742e-05 	 2.283347e+07 	
1.22680890e+06 	 4.299305e-05 	 2.282489e+07 	
1.22690895e+06 	 4.285035e-05 	 2.281633e+07 	
1.22700900e+06 	 4.270928e-05 	 2.280779e+07 	
1.22710905e+06 	 4.256981e-05 	 2.279927e+07 	
1.22720910e+06 	 4.243191e-05 	 2.279076e+07 	
1.22730915e+06 	 4.229554e-05 	 2.278226e+07 	
1.22740920e+06 	 4.216068e-05 	 2.277378e+07 	
1.22750925e+06 	 4.202729e-05 	 2.276531e+07 	
1.22760930e+06 	 4.189535e-05 	 2.275686e+07 	
1.22770935e+06 	 4.176483e-05 	 2.274842e+07 	
1.22780940e+06 	 4.163570e-05 	 2.274000e+07 	
1.22790945e+06 	 4.150793e-05 	 2.273159e+07 	
1.22800950e+06 	 4.138150e-05 	 2.272320e+07 	
1.22810955e+06 	 4.125638e-05 	 2.271481e+07 	
1.22820960e+06 	 4.113255e-05 	 2.270644e+07 	
1.22830965e+06 	 4.100998e-05 	 2.269809e+07 	
1.22840970e+06 	 4.088864e-05 	 2.268974e+07 	
1.22850975e+06 	 4.076852e-05 	 2.268141e+07 	
1.22860980e+06 	 4.064959e-05 	 2.267309e+07 	
1.22870985e+06 	 4.053183e-05 	 2.266479e+07 	
1.22880990e+06 	 4.041521e-05 	 2.265649e+07 	
1.22890995e+06 	 4.029971e-05 	 2.264821e+07 	
1.22901001e+06 	 4.018532e-05 	 2.263994e+07 	
1.22911006e+06 	 4.007201e-05 	 2.263168e+07 	
1.22921011e+06 	 3.995976e-05 	 2.262344e+07 	
1.22931016e+06 	 3.985057e-05 	 2.261517e+07 	
1.22941021e+06 	 3.974042e-05 	 2.260695e+07 	
1.22951026e+06 	 3.963127e-05 	 2.259873e+07 	
1.22961031e+06 	 3.952311e-05 	 2.259053e+07 	
1.22971036e+06 	 3.941591e-05 	 2.258234e+07 	
1.22981041e+06 	 3.930966e-05 	 2.257416e+07 	
1.22991046e+06 	 3.920435e-05 	 2.256598e+07 	
1.23001051e+06 	 3.909995e-05 	 2.255782e+07 	
1.23011056e+06 	 3.899644e-05 	 2.254967e+07 	
1.23021061e+06 	 3.889382e-05 	 2.254153e+07 	
1.23031066e+06 	 3.879206e-05 	 2.253340e+07 	
1.23041071e+06 	 3.869115e-05 	 2.252528e+07 	
1.23051076e+06 	 3.859108e-05 	 2.251717e+07 	
1.23061081e+06 	 3.849183e-05 	 2.250907e+07 	
1.23071086e+06 	 3.839338e-05 	 2.250097e+07 	
1.23081091e+06 	 3.829572e-05 	 2.249289e+07 	
1.23091096e+06 	 3.819883e-05 	 2.248482e+07 	
1.23101101e+06 	 3.810271e-05 	 2.247675e+07 	
1.23111106e+06 	 3.800734e-05 	 2.246869e+07 	
1.23121111e+06 	 3.791270e-05 	 2.246065e+07 	
1.23131116e+06 	 3.781878e-05 	 2.245261e+07 	
1.23141121e+06 	 3.772558e-05 	 2.244458e+07 	
1.23151126e+06 	 3.763307e-05 	 2.243656e+07 	
1.23161131e+06 	 3.754124e-05 	 2.242854e+07 	
1.23171136e+06 	 3.745009e-05 	 2.242054e+07 	
1.23181141e+06 	 3.735959e-05 	 2.241254e+07 	
1.23191146e+06 	 3.726975e-05 	 2.240455e+07 	
1.23201151e+06 	 3.718054e-05 	 2.239657e+07 	
1.23211156e+06 	 3.709197e-05 	 2.238860e+07 	
1.23221161e+06 	 3.700400e-05 	 2.238063e+07 	
1.23231166e+06 	 3.691665e-05 	 2.237268e+07 	
1.23241171e+06 	 3.682988e-05 	 2.236473e+07 	
1.23251176e+06 	 3.674370e-05 	 2.235679e+07 	
1.23261181e+06 	 3.665810e-05 	 2.234885e+07 	
1.23271186e+06 	 3.657306e-05 	 2.234092e+07 	
1.23281191e+06 	 3.648858e-05 	 2.233300e+07 	
1.23291196e+06 	 3.640464e-05 	 2.232509e+07 	
1.23301201e+06 	 3.631939e-05 	 2.231721e+07 	
1.23311206e+06 	 3.623648e-05 	 2.230931e+07 	
1.23321211e+06 	 3.615410e-05 	 2.230142e+07 	
1.23331216e+06 	 3.607222e-05 	 2.229354e+07 	
1.23341221e+06 	 3.599084e-05 	 2.228566e+07 	
1.23351226e+06 	 3.590995e-05 	 2.227779e+07 	
1.23361231e+06 	 3.582955e-05 	 2.226992e+07 	
1.23371236e+06 	 3.574963e-05 	 2.226207e+07 	
1.23381241e+06 	 3.567017e-05 	 2.225422e+07 	
1.23391246e+06 	 3.559117e-05 	 2.224637e+07 	
1.23401251e+06 	 3.551262e-05 	 2.223853e+07 	
1.23411256e+06 	 3.543452e-05 	 2.223070e+07 	
1.23421261e+06 	 3.535685e-05 	 2.222288e+07 	
1.23431266e+06 	 3.527962e-05 	 2.221506e+07 	
1.23441271e+06 	 3.520280e-05 	 2.220724e+07 	
1.23451276e+06 	 3.512641e-05 	 2.219944e+07 	
1.23461281e+06 	 3.505042e-05 	 2.219163e+07 	
1.23471286e+06 	 3.497483e-05 	 2.218384e+07 	
1.23481291e+06 	 3.489964e-05 	 2.217605e+07 	
1.23491296e+06 	 3.482484e-05 	 2.216827e+07 	
1.23501301e+06 	 3.475043e-05 	 2.216049e+07 	
1.23511306e+06 	 3.467639e-05 	 2.215272e+07 	
1.23521311e+06 	 3.460272e-05 	 2.214495e+07 	
1.23531316e+06 	 3.452941e-05 	 2.213719e+07 	
1.23541321e+06 	 3.445646e-05 	 2.212943e+07 	
1.23551326e+06 	 3.438387e-05 	 2.212168e+07 	
1.23561331e+06 	 3.431162e-05 	 2.211394e+07 	
1.23571336e+06 	 3.423972e-05 	 2.210620e+07 	
1.23581341e+06 	 3.416815e-05 	 2.209847e+07 	
1.23591346e+06 	 3.409691e-05 	 2.209074e+07 	
1.23601351e+06 	 3.402600e-05 	 2.208301e+07 	
1.23611356e+06 	 3.395541e-05 	 2.207530e+07 	
1.23621361e+06 	 3.388513e-05 	 2.206758e+07 	
1.23631366e+06 	 3.381516e-05 	 2.205987e+07 	
1.23641371e+06 	 3.374550e-05 	 2.205217e+07 	
1.23651376e+06 	 3.367614e-05 	 2.204447e+07 	
1.23661381e+06 	 3.360708e-05 	 2.203678e+07 	
1.23671386e+06 	 3.353830e-05 	 2.202909e+07 	
1.23681391e+06 	 3.347149e-05 	 2.202139e+07 	
1.23691396e+06 	 3.340331e-05 	 2.201371e+07 	
