r (cm)        	 rho (g/cm3) 	 T (K)       		 Linf = 2.290168e+38
1.20000001e+06 	 1.605672e+05 	 1.157428e+09 	
1.20001997e+06 	 1.553603e+05 	 1.147370e+09 	
1.20011153e+06 	 1.331476e+05 	 1.101427e+09 	
1.20020310e+06 	 1.135241e+05 	 1.055849e+09 	
1.20029105e+06 	 9.690267e+04 	 1.012429e+09 	
1.20037900e+06 	 8.227125e+04 	 9.693784e+08 	
1.20046695e+06 	 6.945019e+04 	 9.267131e+08 	
1.20053864e+06 	 6.022173e+04 	 8.922373e+08 	
1.20061032e+06 	 5.199635e+04 	 8.580402e+08 	
1.20068200e+06 	 4.469166e+04 	 8.241330e+08 	
1.20075369e+06 	 3.822953e+04 	 7.905275e+08 	
1.20082529e+06 	 3.254228e+04 	 7.572744e+08 	
1.20089689e+06 	 2.755243e+04 	 7.243478e+08 	
1.20095559e+06 	 2.393599e+04 	 6.976075e+08 	
1.20101428e+06 	 2.071018e+04 	 6.711038e+08 	
1.20107298e+06 	 1.784274e+04 	 6.448451e+08 	
1.20113168e+06 	 1.530315e+04 	 6.188401e+08 	
1.20118861e+06 	 1.312605e+04 	 5.938705e+08 	
1.20124553e+06 	 1.120542e+04 	 5.691570e+08 	
1.20130246e+06 	 9.517918e+03 	 5.447088e+08 	
1.20134944e+06 	 8.285256e+03 	 5.247389e+08 	
1.20139642e+06 	 7.184807e+03 	 5.049619e+08 	
1.20144340e+06 	 6.205588e+03 	 4.853836e+08 	
1.20149038e+06 	 5.337231e+03 	 4.660100e+08 	
1.20153618e+06 	 4.588151e+03 	 4.473283e+08 	
1.20158198e+06 	 3.926614e+03 	 4.288531e+08 	
1.20162777e+06 	 3.344625e+03 	 4.105909e+08 	
1.20166579e+06 	 2.916486e+03 	 3.955954e+08 	
1.20170382e+06 	 2.533970e+03 	 3.807550e+08 	
1.20174184e+06 	 2.193268e+03 	 3.660736e+08 	
1.20177986e+06 	 1.890794e+03 	 3.515554e+08 	
1.20181821e+06 	 1.620984e+03 	 3.370800e+08 	
1.20185656e+06 	 1.383390e+03 	 3.227793e+08 	
1.20188775e+06 	 1.211821e+03 	 3.112818e+08 	
1.20191894e+06 	 1.058009e+03 	 2.999052e+08 	
1.20195013e+06 	 9.205033e+02 	 2.886523e+08 	
1.20198132e+06 	 7.979382e+02 	 2.775255e+08 	
1.20201251e+06 	 6.890291e+02 	 2.665276e+08 	
1.20204405e+06 	 5.915421e+02 	 2.555387e+08 	
1.20207559e+06 	 5.056208e+02 	 2.446873e+08 	
1.20210138e+06 	 4.431995e+02 	 2.359191e+08 	
1.20212717e+06 	 3.872192e+02 	 2.272464e+08 	
1.20215296e+06 	 3.371523e+02 	 2.186708e+08 	
1.20217875e+06 	 2.925024e+02 	 2.101941e+08 	
1.20220455e+06 	 2.528032e+02 	 2.018179e+08 	
1.20223068e+06 	 2.171736e+02 	 1.934336e+08 	
1.20225682e+06 	 1.857539e+02 	 1.851561e+08 	
1.20227828e+06 	 1.628259e+02 	 1.784417e+08 	
1.20229973e+06 	 1.422612e+02 	 1.718015e+08 	
1.20232119e+06 	 1.238661e+02 	 1.652368e+08 	
1.20234265e+06 	 1.074582e+02 	 1.587486e+08 	
1.20236411e+06 	 9.286640e+01 	 1.523380e+08 	
1.20238589e+06 	 7.974793e+01 	 1.459114e+08 	
1.20240767e+06 	 6.817884e+01 	 1.395671e+08 	
1.20242561e+06 	 5.971014e+01 	 1.344042e+08 	
1.20244355e+06 	 5.211679e+01 	 1.292986e+08 	
1.20246148e+06 	 4.532686e+01 	 1.242510e+08 	
1.20247942e+06 	 3.927279e+01 	 1.192620e+08 	
1.20249736e+06 	 3.389120e+01 	 1.143324e+08 	
1.20251609e+06 	 2.892669e+01 	 1.092507e+08 	
1.20253156e+06 	 2.528454e+01 	 1.051027e+08 	
1.20254703e+06 	 2.202198e+01 	 1.010005e+08 	
1.20256250e+06 	 1.910772e+01 	 9.694473e+07 	
1.20257797e+06 	 1.651236e+01 	 9.293586e+07 	
1.20259344e+06 	 1.420833e+01 	 8.897452e+07 	
1.20260960e+06 	 1.208411e+01 	 8.488679e+07 	
1.20262302e+06 	 1.052081e+01 	 8.153313e+07 	
1.20263644e+06 	 9.123686e+00 	 7.821684e+07 	
1.20264987e+06 	 7.878876e+00 	 7.493851e+07 	
1.20266329e+06 	 6.773375e+00 	 7.169881e+07 	
1.20267671e+06 	 5.794989e+00 	 6.849851e+07 	
1.20269077e+06 	 4.894104e+00 	 6.518977e+07 	
1.20270239e+06 	 4.236212e+00 	 6.248770e+07 	
1.20271402e+06 	 3.650267e+00 	 5.981757e+07 	
1.20272565e+06 	 3.130181e+00 	 5.718043e+07 	
1.20273727e+06 	 2.670232e+00 	 5.457752e+07 	
1.20274890e+06 	 2.265060e+00 	 5.201041e+07 	
1.20276052e+06 	 1.909648e+00 	 4.948102e+07 	
1.20277114e+06 	 1.624467e+00 	 4.720532e+07 	
1.20278177e+06 	 1.373553e+00 	 4.496548e+07 	
1.20279239e+06 	 1.153773e+00 	 4.276439e+07 	
1.20280301e+06 	 9.621992e-01 	 4.060573e+07 	
1.20281363e+06 	 7.960973e-01 	 3.849410e+07 	
1.20282381e+06 	 6.584364e-01 	 3.651951e+07 	
1.20283399e+06 	 5.397522e-01 	 3.459971e+07 	
1.20284417e+06 	 4.381055e-01 	 3.274233e+07 	
1.20285443e+06 	 3.510506e-01 	 3.094229e+07 	
1.20286470e+06 	 2.777829e-01 	 2.922600e+07 	
1.20287528e+06 	 2.150407e-01 	 2.755783e+07 	
1.20288545e+06 	 1.654662e-01 	 2.606294e+07 	
1.20289563e+06 	 1.251541e-01 	 2.468844e+07 	
1.20289957e+06 	 1.117741e-01 	 2.419095e+07 	
1.20289996e+06 	 1.105001e-01 	 2.414230e+07 	
1.20290000e+06 	 1.103733e-01 	 2.413745e+07 	
1.20296669e+06 	 1.057206e-02 	 1.884711e+07 	
1.20303338e+06 	 6.198961e-04 	 1.743895e+07 	
1.20310007e+06 	 3.202257e-05 	 1.714574e+07 	
1.20316676e+06 	 1.611262e-06 	 1.708287e+07 	
1.20323344e+06 	 8.063480e-08 	 1.706928e+07 	
1.20330013e+06 	 4.030752e-09 	 1.706488e+07 	
1.20336682e+06 	 2.014774e-10 	 1.706364e+07 	
1.38032625e+06 	 1.000000e-20 	 1.567358e+07 	
1.58330820e+06 	 1.000000e-20 	 1.443899e+07 	
1.81613938e+06 	 1.000000e-20 	 1.333209e+07 	
2.08320921e+06 	 1.000000e-20 	 1.233248e+07 	
2.38955264e+06 	 1.000000e-20 	 1.142463e+07 	
2.74094496e+06 	 1.000000e-20 	 1.059638e+07 	
3.14401080e+06 	 1.000000e-20 	 9.837954e+06 	
3.60634891e+06 	 1.000000e-20 	 9.141390e+06 	
4.13667552e+06 	 1.000000e-20 	 8.500052e+06 	
4.74498856e+06 	 1.000000e-20 	 7.908342e+06 	
5.44275622e+06 	 1.000000e-20 	 7.361478e+06 	
6.24313314e+06 	 1.000000e-20 	 6.855325e+06 	
7.16120837e+06 	 1.000000e-20 	 6.386275e+06 	
8.21428986e+06 	 1.000000e-20 	 5.951154e+06 	
9.42223079e+06 	 1.000000e-20 	 5.547149e+06 	
1.08078038e+07 	 1.000000e-20 	 5.171747e+06 	
1.23971303e+07 	 1.000000e-20 	 4.822697e+06 	
1.42201729e+07 	 1.000000e-20 	 4.497966e+06 	
1.63113006e+07 	 1.000000e-20 	 4.195714e+06 	
1.87099362e+07 	 1.000000e-20 	 3.914268e+06 	
2.14612997e+07 	 1.000000e-20 	 3.652102e+06 	
2.46172611e+07 	 1.000000e-20 	 3.407818e+06 	
2.82373181e+07 	 1.000000e-20 	 3.180136e+06 	
3.23897175e+07 	 1.000000e-20 	 2.967878e+06 	
3.71527422e+07 	 1.000000e-20 	 2.769959e+06 	
4.26161868e+07 	 1.000000e-20 	 2.585378e+06 	
4.88830506e+07 	 1.000000e-20 	 2.413210e+06 	
5.60714793e+07 	 1.000000e-20 	 2.252599e+06 	
6.43169924e+07 	 1.000000e-20 	 2.102753e+06 	
7.37750379e+07 	 1.000000e-20 	 1.962934e+06 	
8.46239231e+07 	 1.000000e-20 	 1.832462e+06 	
9.70681760e+07 	 1.000000e-20 	 1.710703e+06 	
1.11342401e+08 	 1.000000e-20 	 1.597066e+06 	
1.27715702e+08 	 1.000000e-20 	 1.491004e+06 	
1.46496757e+08 	 1.000000e-20 	 1.392007e+06 	
1.68039633e+08 	 1.000000e-20 	 1.299601e+06 	
1.92750466e+08 	 1.000000e-20 	 1.213343e+06 	
2.21095117e+08 	 1.000000e-20 	 1.132822e+06 	
2.53607950e+08 	 1.000000e-20 	 1.057654e+06 	
2.90901913e+08 	 1.000000e-20 	 9.874813e+05 	
3.33680088e+08 	 1.000000e-20 	 9.219707e+05 	
3.82748947e+08 	 1.000000e-20 	 8.608112e+05 	
4.39033559e+08 	 1.000000e-20 	 8.037128e+05 	
5.03595026e+08 	 1.000000e-20 	 7.504052e+05 	
5.77650489e+08 	 1.000000e-20 	 7.006361e+05 	
6.62596075e+08 	 1.000000e-20 	 6.541700e+05 	
7.60033216e+08 	 1.000000e-20 	 6.107873e+05 	
8.71798839e+08 	 1.000000e-20 	 5.702832e+05 	
1.00000000e+09 	 1.000000e-20 	 5.324662e+05 	
