r (cm)        	 rho (g/cm3) 	 T (K)       		 Linf = 3.063918e+38
1.19996001e+06 	 1.327709e+05 	 1.232724e+09 	
1.20007207e+06 	 1.131383e+05 	 1.183086e+09 	
1.20016504e+06 	 9.871480e+04 	 1.142376e+09 	
1.20025802e+06 	 8.583577e+04 	 1.102110e+09 	
1.20035099e+06 	 7.437153e+04 	 1.062305e+09 	
1.20044397e+06 	 6.419976e+04 	 1.022977e+09 	
1.20053765e+06 	 5.514084e+04 	 9.838474e+08 	
1.20063134e+06 	 4.716684e+04 	 9.452384e+08 	
1.20070756e+06 	 4.140787e+04 	 9.142235e+08 	
1.20078378e+06 	 3.624609e+04 	 8.835762e+08 	
1.20086000e+06 	 3.163209e+04 	 8.533077e+08 	
1.20093623e+06 	 2.751934e+04 	 8.234294e+08 	
1.20101245e+06 	 2.386407e+04 	 7.939529e+08 	
1.20108758e+06 	 2.066881e+04 	 7.653029e+08 	
1.20116271e+06 	 1.784137e+04 	 7.370669e+08 	
1.20123785e+06 	 1.534737e+04 	 7.092572e+08 	
1.20129983e+06 	 1.351801e+04 	 6.866437e+08 	
1.20136182e+06 	 1.187689e+04 	 6.643360e+08 	
1.20142380e+06 	 1.040817e+04 	 6.423413e+08 	
1.20148579e+06 	 9.096993e+03 	 6.206671e+08 	
1.20154777e+06 	 7.929449e+03 	 5.993209e+08 	
1.20160944e+06 	 6.897594e+03 	 5.784181e+08 	
1.20167110e+06 	 5.983086e+03 	 5.578549e+08 	
1.20173276e+06 	 5.174823e+03 	 5.376389e+08 	
1.20178338e+06 	 4.583482e+03 	 5.213093e+08 	
1.20183400e+06 	 4.051453e+03 	 5.052229e+08 	
1.20188462e+06 	 3.573753e+03 	 4.893841e+08 	
1.20193523e+06 	 3.145720e+03 	 4.737971e+08 	
1.20198585e+06 	 2.763000e+03 	 4.584660e+08 	
1.20203647e+06 	 2.421537e+03 	 4.433951e+08 	
1.20208841e+06 	 2.110087e+03 	 4.282053e+08 	
1.20214035e+06 	 1.834321e+03 	 4.132981e+08 	
1.20218299e+06 	 1.632130e+03 	 4.012737e+08 	
1.20222563e+06 	 1.449834e+03 	 3.894450e+08 	
1.20226827e+06 	 1.285753e+03 	 3.778143e+08 	
1.20231091e+06 	 1.138322e+03 	 3.663838e+08 	
1.20235356e+06 	 1.006085e+03 	 3.551556e+08 	
1.20239620e+06 	 8.876847e+02 	 3.441319e+08 	
1.20243884e+06 	 7.818655e+02 	 3.333146e+08 	
1.20248288e+06 	 6.845435e+02 	 3.223607e+08 	
1.20252692e+06 	 5.982171e+02 	 3.116310e+08 	
1.20256335e+06 	 5.343437e+02 	 3.029268e+08 	
1.20259978e+06 	 4.766762e+02 	 2.943783e+08 	
1.20263621e+06 	 4.246841e+02 	 2.859864e+08 	
1.20267264e+06 	 3.778746e+02 	 2.777518e+08 	
1.20270907e+06 	 3.357908e+02 	 2.696755e+08 	
1.20274550e+06 	 2.980094e+02 	 2.617580e+08 	
1.20278193e+06 	 2.641392e+02 	 2.539999e+08 	
1.20281836e+06 	 2.338189e+02 	 2.464018e+08 	
1.20285681e+06 	 2.053008e+02 	 2.385565e+08 	
1.20288869e+06 	 1.841094e+02 	 2.321856e+08 	
1.20292058e+06 	 1.649468e+02 	 2.259380e+08 	
1.20295247e+06 	 1.476378e+02 	 2.198139e+08 	
1.20298436e+06 	 1.320207e+02 	 2.138131e+08 	
1.20301625e+06 	 1.179455e+02 	 2.079358e+08 	
1.20304813e+06 	 1.052741e+02 	 2.021818e+08 	
1.20308002e+06 	 9.387897e+01 	 1.965508e+08 	
1.20311191e+06 	 8.364280e+01 	 1.910428e+08 	
1.20314380e+06 	 7.445771e+01 	 1.856574e+08 	
1.20317569e+06 	 6.622465e+01 	 1.803941e+08 	
1.20320404e+06 	 5.963061e+01 	 1.758168e+08 	
1.20323239e+06 	 5.365856e+01 	 1.713354e+08 	
1.20326074e+06 	 4.825432e+01 	 1.669495e+08 	
1.20328909e+06 	 4.336789e+01 	 1.626586e+08 	
1.20331745e+06 	 3.895323e+01 	 1.584621e+08 	
1.20334580e+06 	 3.496796e+01 	 1.543597e+08 	
1.20337415e+06 	 3.137313e+01 	 1.503506e+08 	
1.20340250e+06 	 2.813296e+01 	 1.464342e+08 	
1.20343085e+06 	 2.521467e+01 	 1.426098e+08 	
1.20345920e+06 	 2.258822e+01 	 1.388768e+08 	
1.20348756e+06 	 2.022611e+01 	 1.352342e+08 	
1.20351591e+06 	 1.810323e+01 	 1.316814e+08 	
1.20354426e+06 	 1.619665e+01 	 1.282174e+08 	
1.20357261e+06 	 1.448545e+01 	 1.248414e+08 	
1.20360096e+06 	 1.295059e+01 	 1.215524e+08 	
1.20362931e+06 	 1.157474e+01 	 1.183493e+08 	
1.20365759e+06 	 1.034509e+01 	 1.152390e+08 	
1.20368588e+06 	 9.243799e+00 	 1.122122e+08 	
1.20371416e+06 	 8.257987e+00 	 1.092679e+08 	
1.20374244e+06 	 7.375996e+00 	 1.064048e+08 	
1.20377072e+06 	 6.587268e+00 	 1.036218e+08 	
1.20379900e+06 	 5.882257e+00 	 1.009178e+08 	
1.20382728e+06 	 5.252341e+00 	 9.829157e+07 	
1.20385556e+06 	 4.689738e+00 	 9.574178e+07 	
1.20388384e+06 	 4.187432e+00 	 9.326721e+07 	
1.20391212e+06 	 3.739103e+00 	 9.086655e+07 	
1.20394040e+06 	 3.339065e+00 	 8.853848e+07 	
1.20396868e+06 	 2.982206e+00 	 8.628166e+07 	
1.20399696e+06 	 2.663933e+00 	 8.409475e+07 	
1.20402524e+06 	 2.380123e+00 	 8.197635e+07 	
1.20405705e+06 	 2.097532e+00 	 7.967407e+07 	
1.20408885e+06 	 1.849185e+00 	 7.745471e+07 	
1.20412066e+06 	 1.630947e+00 	 7.531625e+07 	
1.20415246e+06 	 1.439171e+00 	 7.325666e+07 	
1.20418427e+06 	 1.270642e+00 	 7.127392e+07 	
1.20421607e+06 	 1.122528e+00 	 6.936599e+07 	
1.20424788e+06 	 9.923352e-01 	 6.753082e+07 	
1.20427968e+06 	 8.778721e-01 	 6.576638e+07 	
1.20431149e+06 	 7.772115e-01 	 6.407062e+07 	
1.20434329e+06 	 6.886607e-01 	 6.244152e+07 	
1.20438031e+06 	 5.988896e-01 	 6.062682e+07 	
1.20441732e+06 	 5.214796e-01 	 5.889652e+07 	
1.20445433e+06 	 4.546837e-01 	 5.724748e+07 	
1.20449135e+06 	 3.970031e-01 	 5.567662e+07 	
1.20452836e+06 	 3.471520e-01 	 5.418089e+07 	
1.20456538e+06 	 3.040284e-01 	 5.275729e+07 	
1.20460808e+06 	 2.614103e-01 	 5.120074e+07 	
1.20465078e+06 	 2.252631e-01 	 4.973182e+07 	
1.20469348e+06 	 1.945576e-01 	 4.834622e+07 	
1.20473618e+06 	 1.684321e-01 	 4.703971e+07 	
1.20478495e+06 	 1.432781e-01 	 4.563908e+07 	
1.20483372e+06 	 1.222714e-01 	 4.433040e+07 	
1.20488249e+06 	 1.046848e-01 	 4.310803e+07 	
1.20493628e+06 	 8.854358e-02 	 4.185335e+07 	
1.20499007e+06 	 7.519460e-02 	 4.069012e+07 	
1.20504957e+06 	 6.305784e-02 	 3.950204e+07 	
1.20510907e+06 	 5.314305e-02 	 3.840941e+07 	
1.20517937e+06 	 4.369456e-02 	 3.723073e+07 	
1.20524967e+06 	 3.617114e-02 	 3.616235e+07 	
1.20531997e+06 	 3.014385e-02 	 3.519329e+07 	
1.20540330e+06 	 2.449275e-02 	 3.415962e+07 	
1.20548662e+06 	 2.007864e-02 	 3.323647e+07 	
1.20556995e+06 	 1.660150e-02 	 3.241057e+07 	
1.20566173e+06 	 1.359228e-02 	 3.159936e+07 	
1.20575352e+06 	 1.123449e-02 	 3.087829e+07 	
1.20585461e+06 	 9.203179e-03 	 3.017435e+07 	
1.20595570e+06 	 7.616817e-03 	 2.955190e+07 	
1.20606756e+06 	 6.247558e-03 	 2.894433e+07 	
1.20617942e+06 	 5.180846e-03 	 2.840947e+07 	
1.20630455e+06 	 4.252640e-03 	 2.788401e+07 	
1.20642968e+06 	 3.531803e-03 	 2.742344e+07 	
1.20656863e+06 	 2.909968e-03 	 2.697568e+07 	
1.20670757e+06 	 2.426769e-03 	 2.658394e+07 	
1.20687151e+06 	 1.986567e-03 	 2.618137e+07 	
1.20698716e+06 	 1.739497e-03 	 2.593003e+07 	
1.20699873e+06 	 1.717162e-03 	 2.590622e+07 	
1.20699988e+06 	 1.714950e-03 	 2.590385e+07 	
1.20700000e+06 	 1.714729e-03 	 2.590361e+07 	
1.20710005e+06 	 1.537421e-03 	 2.570696e+07 	
1.20720010e+06 	 1.384588e-03 	 2.552544e+07 	
1.20730015e+06 	 1.252150e-03 	 2.535742e+07 	
1.20740020e+06 	 1.136857e-03 	 2.520153e+07 	
1.20750025e+06 	 1.035983e-03 	 2.505651e+07 	
1.20760030e+06 	 9.473833e-04 	 2.492130e+07 	
1.20770035e+06 	 8.691910e-04 	 2.479493e+07 	
1.20780040e+06 	 7.999591e-04 	 2.467660e+07 	
1.20790045e+06 	 7.383971e-04 	 2.456554e+07 	
1.20800050e+06 	 6.834775e-04 	 2.446111e+07 	
1.20810055e+06 	 6.343222e-04 	 2.436272e+07 	
1.20820060e+06 	 5.901659e-04 	 2.426986e+07 	
1.20830065e+06 	 5.504014e-04 	 2.418207e+07 	
1.20840070e+06 	 5.144737e-04 	 2.409892e+07 	
1.20850075e+06 	 4.819223e-04 	 2.402005e+07 	
1.20860080e+06 	 4.523647e-04 	 2.394512e+07 	
1.20870085e+06 	 4.254439e-04 	 2.387382e+07 	
1.20880090e+06 	 4.008697e-04 	 2.380589e+07 	
1.20890095e+06 	 3.783930e-04 	 2.374108e+07 	
1.20900100e+06 	 3.577788e-04 	 2.367916e+07 	
1.20910105e+06 	 3.388346e-04 	 2.361993e+07 	
1.20920110e+06 	 3.213979e-04 	 2.356321e+07 	
1.20930115e+06 	 3.053130e-04 	 2.350882e+07 	
1.20940120e+06 	 2.904417e-04 	 2.345661e+07 	
1.20950125e+06 	 2.766753e-04 	 2.340643e+07 	
1.20960130e+06 	 2.639103e-04 	 2.335817e+07 	
1.20970135e+06 	 2.520489e-04 	 2.331169e+07 	
1.20980140e+06 	 2.410094e-04 	 2.326689e+07 	
1.20990145e+06 	 2.307246e-04 	 2.322367e+07 	
1.21000150e+06 	 2.211276e-04 	 2.318193e+07 	
1.21010155e+06 	 2.121576e-04 	 2.314159e+07 	
1.21020160e+06 	 2.037602e-04 	 2.310257e+07 	
1.21030165e+06 	 1.958924e-04 	 2.306479e+07 	
1.21040170e+06 	 1.885112e-04 	 2.302819e+07 	
1.21050175e+06 	 1.815785e-04 	 2.299270e+07 	
1.21060180e+06 	 1.750536e-04 	 2.295825e+07 	
1.21070185e+06 	 1.689091e-04 	 2.292480e+07 	
1.21080190e+06 	 1.631185e-04 	 2.289230e+07 	
1.21090195e+06 	 1.576553e-04 	 2.286070e+07 	
1.21100200e+06 	 1.524948e-04 	 2.282996e+07 	
1.21110205e+06 	 1.476129e-04 	 2.280002e+07 	
1.21120210e+06 	 1.429906e-04 	 2.277085e+07 	
1.21130215e+06 	 1.386119e-04 	 2.274241e+07 	
1.21140220e+06 	 1.344605e-04 	 2.271468e+07 	
1.21150225e+06 	 1.305206e-04 	 2.268761e+07 	
1.21160230e+06 	 1.267779e-04 	 2.266118e+07 	
1.21170235e+06 	 1.232180e-04 	 2.263536e+07 	
1.21180240e+06 	 1.198303e-04 	 2.261012e+07 	
1.21190245e+06 	 1.166047e-04 	 2.258543e+07 	
1.21200250e+06 	 1.135312e-04 	 2.256128e+07 	
1.21210255e+06 	 1.106003e-04 	 2.253764e+07 	
1.21220260e+06 	 1.078032e-04 	 2.251449e+07 	
1.21230265e+06 	 1.051299e-04 	 2.249180e+07 	
1.21240270e+06 	 1.025745e-04 	 2.246955e+07 	
1.21250275e+06 	 1.001308e-04 	 2.244774e+07 	
1.21260280e+06 	 9.779276e-05 	 2.242635e+07 	
1.21270285e+06 	 9.555435e-05 	 2.240535e+07 	
1.21280290e+06 	 9.340946e-05 	 2.238473e+07 	
1.21290295e+06 	 9.135340e-05 	 2.236449e+07 	
1.21300300e+06 	 8.937992e-05 	 2.234459e+07 	
1.21310305e+06 	 8.748495e-05 	 2.232503e+07 	
1.21320310e+06 	 8.566490e-05 	 2.230580e+07 	
1.21330315e+06 	 8.391619e-05 	 2.228689e+07 	
1.21340320e+06 	 8.223524e-05 	 2.226828e+07 	
1.21350325e+06 	 8.061845e-05 	 2.224996e+07 	
1.21360330e+06 	 7.906225e-05 	 2.223193e+07 	
1.21370335e+06 	 7.756450e-05 	 2.221417e+07 	
1.21380340e+06 	 7.612056e-05 	 2.219667e+07 	
1.21390345e+06 	 7.472823e-05 	 2.217943e+07 	
1.21400350e+06 	 7.338545e-05 	 2.216243e+07 	
1.21410355e+06 	 7.209012e-05 	 2.214567e+07 	
1.21420360e+06 	 7.084018e-05 	 2.212914e+07 	
1.21430365e+06 	 6.963355e-05 	 2.211283e+07 	
1.21440370e+06 	 6.846814e-05 	 2.209674e+07 	
1.21450375e+06 	 6.734189e-05 	 2.208086e+07 	
1.21460380e+06 	 6.625320e-05 	 2.206518e+07 	
1.21470385e+06 	 6.520008e-05 	 2.204969e+07 	
1.21480390e+06 	 6.418064e-05 	 2.203439e+07 	
1.21490395e+06 	 6.319366e-05 	 2.201928e+07 	
1.21500400e+06 	 6.223795e-05 	 2.200434e+07 	
1.21510405e+06 	 6.131231e-05 	 2.198958e+07 	
1.21520410e+06 	 6.041553e-05 	 2.197498e+07 	
1.21530415e+06 	 5.954642e-05 	 2.196055e+07 	
1.21540420e+06 	 5.870377e-05 	 2.194627e+07 	
1.21550425e+06 	 5.788639e-05 	 2.193215e+07 	
1.21560430e+06 	 5.709348e-05 	 2.191818e+07 	
1.21570435e+06 	 5.632384e-05 	 2.190435e+07 	
1.21580440e+06 	 5.557612e-05 	 2.189066e+07 	
1.21590445e+06 	 5.484962e-05 	 2.187710e+07 	
1.21600450e+06 	 5.414367e-05 	 2.186368e+07 	
1.21610455e+06 	 5.345758e-05 	 2.185039e+07 	
1.21620460e+06 	 5.279067e-05 	 2.183722e+07 	
1.21630465e+06 	 5.214225e-05 	 2.182417e+07 	
1.21640470e+06 	 5.151165e-05 	 2.181125e+07 	
1.21650475e+06 	 5.089818e-05 	 2.179844e+07 	
1.21660480e+06 	 5.030117e-05 	 2.178574e+07 	
1.21670485e+06 	 4.971991e-05 	 2.177315e+07 	
1.21680490e+06 	 4.915391e-05 	 2.176067e+07 	
1.21690495e+06 	 4.860271e-05 	 2.174829e+07 	
1.21700500e+06 	 4.806774e-05 	 2.173598e+07 	
1.21710505e+06 	 4.754403e-05 	 2.172380e+07 	
1.21720510e+06 	 4.703350e-05 	 2.171172e+07 	
1.21730515e+06 	 4.653568e-05 	 2.169973e+07 	
1.21740520e+06 	 4.605014e-05 	 2.168783e+07 	
1.21750525e+06 	 4.557645e-05 	 2.167602e+07 	
1.21760530e+06 	 4.511423e-05 	 2.166430e+07 	
1.21770535e+06 	 4.466308e-05 	 2.165267e+07 	
1.21780540e+06 	 4.422264e-05 	 2.164111e+07 	
1.21790545e+06 	 4.379255e-05 	 2.162964e+07 	
1.21800550e+06 	 4.337247e-05 	 2.161824e+07 	
1.21810555e+06 	 4.296207e-05 	 2.160693e+07 	
1.21820560e+06 	 4.256105e-05 	 2.159568e+07 	
1.21830565e+06 	 4.216910e-05 	 2.158452e+07 	
1.21840570e+06 	 4.178594e-05 	 2.157342e+07 	
1.21850575e+06 	 4.141128e-05 	 2.156239e+07 	
1.21860580e+06 	 4.104486e-05 	 2.155143e+07 	
1.21870585e+06 	 4.068642e-05 	 2.154054e+07 	
1.21880590e+06 	 4.033573e-05 	 2.152972e+07 	
1.21890595e+06 	 3.999253e-05 	 2.151895e+07 	
1.21900600e+06 	 3.965460e-05 	 2.150828e+07 	
1.21910605e+06 	 3.932570e-05 	 2.149764e+07 	
1.21920610e+06 	 3.900364e-05 	 2.148706e+07 	
1.21930615e+06 	 3.868822e-05 	 2.147654e+07 	
1.21940620e+06 	 3.837923e-05 	 2.146608e+07 	
1.21950625e+06 	 3.807650e-05 	 2.145567e+07 	
1.21960630e+06 	 3.777983e-05 	 2.144532e+07 	
1.21970635e+06 	 3.748905e-05 	 2.143502e+07 	
1.21980640e+06 	 3.720399e-05 	 2.142478e+07 	
1.21990645e+06 	 3.692449e-05 	 2.141458e+07 	
1.22000650e+06 	 3.665039e-05 	 2.140444e+07 	
1.22010655e+06 	 3.638153e-05 	 2.139435e+07 	
1.22020660e+06 	 3.611777e-05 	 2.138430e+07 	
1.22030665e+06 	 3.585896e-05 	 2.137430e+07 	
1.22040670e+06 	 3.560497e-05 	 2.136435e+07 	
1.22050675e+06 	 3.535567e-05 	 2.135444e+07 	
1.22060680e+06 	 3.511092e-05 	 2.134458e+07 	
1.22070685e+06 	 3.487061e-05 	 2.133476e+07 	
1.22080690e+06 	 3.463460e-05 	 2.132498e+07 	
1.22090695e+06 	 3.440279e-05 	 2.131524e+07 	
1.22100700e+06 	 3.417506e-05 	 2.130555e+07 	
1.22110705e+06 	 3.395131e-05 	 2.129590e+07 	
1.22120710e+06 	 3.373142e-05 	 2.128628e+07 	
1.22130715e+06 	 3.351530e-05 	 2.127671e+07 	
1.22140720e+06 	 3.330285e-05 	 2.126717e+07 	
1.22150725e+06 	 3.309397e-05 	 2.125767e+07 	
1.22160730e+06 	 3.288857e-05 	 2.124820e+07 	
1.22170735e+06 	 3.268656e-05 	 2.123877e+07 	
1.22180740e+06 	 3.248785e-05 	 2.122938e+07 	
1.22190745e+06 	 3.229236e-05 	 2.122002e+07 	
1.22200750e+06 	 3.210001e-05 	 2.121069e+07 	
1.22210755e+06 	 3.191071e-05 	 2.120140e+07 	
1.22220760e+06 	 3.172440e-05 	 2.119214e+07 	
1.22230765e+06 	 3.154099e-05 	 2.118291e+07 	
1.22240770e+06 	 3.136041e-05 	 2.117371e+07 	
1.22250775e+06 	 3.118419e-05 	 2.116452e+07 	
1.22260780e+06 	 3.100909e-05 	 2.115539e+07 	
1.22270785e+06 	 3.083663e-05 	 2.114628e+07 	
1.22280790e+06 	 3.066673e-05 	 2.113720e+07 	
1.22290795e+06 	 3.049933e-05 	 2.112815e+07 	
1.22300800e+06 	 3.033438e-05 	 2.111913e+07 	
1.22310805e+06 	 3.017180e-05 	 2.111014e+07 	
1.22320810e+06 	 3.001156e-05 	 2.110117e+07 	
1.22330815e+06 	 2.985359e-05 	 2.109223e+07 	
1.22340820e+06 	 2.969783e-05 	 2.108332e+07 	
1.22350825e+06 	 2.954424e-05 	 2.107443e+07 	
1.22360830e+06 	 2.939276e-05 	 2.106557e+07 	
1.22370835e+06 	 2.924334e-05 	 2.105673e+07 	
1.22380840e+06 	 2.909595e-05 	 2.104792e+07 	
1.22390845e+06 	 2.895052e-05 	 2.103913e+07 	
1.22400850e+06 	 2.880701e-05 	 2.103036e+07 	
1.22410855e+06 	 2.866538e-05 	 2.102162e+07 	
1.22420860e+06 	 2.852559e-05 	 2.101290e+07 	
1.22430865e+06 	 2.838759e-05 	 2.100420e+07 	
1.22440870e+06 	 2.825135e-05 	 2.099552e+07 	
1.22450875e+06 	 2.811682e-05 	 2.098687e+07 	
1.22460880e+06 	 2.798396e-05 	 2.097824e+07 	
1.22470885e+06 	 2.785274e-05 	 2.096963e+07 	
1.22480890e+06 	 2.772312e-05 	 2.096103e+07 	
1.22490895e+06 	 2.759507e-05 	 2.095246e+07 	
1.22500900e+06 	 2.746854e-05 	 2.094391e+07 	
1.22510905e+06 	 2.734351e-05 	 2.093538e+07 	
1.22520910e+06 	 2.721994e-05 	 2.092687e+07 	
1.22530915e+06 	 2.709780e-05 	 2.091838e+07 	
1.22540920e+06 	 2.697706e-05 	 2.090990e+07 	
1.22550925e+06 	 2.685769e-05 	 2.090145e+07 	
1.22560930e+06 	 2.673966e-05 	 2.089301e+07 	
1.22570935e+06 	 2.662293e-05 	 2.088459e+07 	
1.22580940e+06 	 2.650749e-05 	 2.087619e+07 	
1.22590945e+06 	 2.639463e-05 	 2.086778e+07 	
1.22600950e+06 	 2.628168e-05 	 2.085941e+07 	
1.22610955e+06 	 2.616994e-05 	 2.085106e+07 	
1.22620960e+06 	 2.605937e-05 	 2.084273e+07 	
1.22630965e+06 	 2.594995e-05 	 2.083441e+07 	
1.22640970e+06 	 2.584166e-05 	 2.082611e+07 	
1.22650975e+06 	 2.573447e-05 	 2.081782e+07 	
1.22660980e+06 	 2.562835e-05 	 2.080955e+07 	
1.22670985e+06 	 2.552329e-05 	 2.080129e+07 	
1.22680990e+06 	 2.541927e-05 	 2.079305e+07 	
1.22690995e+06 	 2.531625e-05 	 2.078483e+07 	
1.22701001e+06 	 2.521423e-05 	 2.077662e+07 	
1.22711006e+06 	 2.511317e-05 	 2.076842e+07 	
1.22721011e+06 	 2.501307e-05 	 2.076024e+07 	
1.22731016e+06 	 2.491389e-05 	 2.075207e+07 	
1.22741021e+06 	 2.481563e-05 	 2.074392e+07 	
1.22751026e+06 	 2.471826e-05 	 2.073578e+07 	
1.22761031e+06 	 2.462176e-05 	 2.072765e+07 	
1.22771036e+06 	 2.452612e-05 	 2.071954e+07 	
1.22781041e+06 	 2.443131e-05 	 2.071144e+07 	
1.22791046e+06 	 2.433733e-05 	 2.070335e+07 	
1.22801051e+06 	 2.424415e-05 	 2.069527e+07 	
1.22811056e+06 	 2.415176e-05 	 2.068721e+07 	
1.22821061e+06 	 2.406014e-05 	 2.067916e+07 	
1.22831066e+06 	 2.396928e-05 	 2.067112e+07 	
1.22841071e+06 	 2.387916e-05 	 2.066310e+07 	
1.22851076e+06 	 2.378977e-05 	 2.065509e+07 	
1.22861081e+06 	 2.370109e-05 	 2.064708e+07 	
1.22871086e+06 	 2.361311e-05 	 2.063909e+07 	
1.22881091e+06 	 2.352581e-05 	 2.063112e+07 	
1.22891096e+06 	 2.343918e-05 	 2.062315e+07 	
1.22901101e+06 	 2.335321e-05 	 2.061519e+07 	
1.22911106e+06 	 2.326788e-05 	 2.060725e+07 	
1.22921111e+06 	 2.318319e-05 	 2.059931e+07 	
1.22931116e+06 	 2.309911e-05 	 2.059139e+07 	
1.22941121e+06 	 2.301564e-05 	 2.058348e+07 	
1.22951126e+06 	 2.293392e-05 	 2.057555e+07 	
1.22961131e+06 	 2.285165e-05 	 2.056766e+07 	
1.22971136e+06 	 2.276994e-05 	 2.055978e+07 	
1.22981141e+06 	 2.268880e-05 	 2.055191e+07 	
1.22991146e+06 	 2.260821e-05 	 2.054404e+07 	
1.23001151e+06 	 2.252815e-05 	 2.053619e+07 	
1.23011156e+06 	 2.244863e-05 	 2.052835e+07 	
1.23021161e+06 	 2.236962e-05 	 2.052052e+07 	
1.23031166e+06 	 2.229112e-05 	 2.051270e+07 	
1.23041171e+06 	 2.221312e-05 	 2.050488e+07 	
1.23051176e+06 	 2.213561e-05 	 2.049708e+07 	
1.23061181e+06 	 2.205858e-05 	 2.048928e+07 	
1.23071186e+06 	 2.198202e-05 	 2.048150e+07 	
1.23081191e+06 	 2.190592e-05 	 2.047372e+07 	
1.23091196e+06 	 2.183027e-05 	 2.046595e+07 	
1.23101201e+06 	 2.175507e-05 	 2.045819e+07 	
1.23111206e+06 	 2.168030e-05 	 2.045044e+07 	
1.23121211e+06 	 2.160596e-05 	 2.044270e+07 	
1.23131216e+06 	 2.153204e-05 	 2.043497e+07 	
1.23141221e+06 	 2.145853e-05 	 2.042724e+07 	
1.23151226e+06 	 2.138542e-05 	 2.041953e+07 	
1.23161231e+06 	 2.131271e-05 	 2.041182e+07 	
1.23171236e+06 	 2.124038e-05 	 2.040412e+07 	
1.23181241e+06 	 2.116844e-05 	 2.039643e+07 	
1.23191246e+06 	 2.109687e-05 	 2.038875e+07 	
1.23201251e+06 	 2.102566e-05 	 2.038107e+07 	
1.23211256e+06 	 2.095482e-05 	 2.037340e+07 	
1.23221261e+06 	 2.088433e-05 	 2.036574e+07 	
1.23231266e+06 	 2.081418e-05 	 2.035809e+07 	
1.23241271e+06 	 2.074438e-05 	 2.035044e+07 	
1.23251276e+06 	 2.067490e-05 	 2.034281e+07 	
1.23261281e+06 	 2.060576e-05 	 2.033518e+07 	
1.23271286e+06 	 2.053693e-05 	 2.032756e+07 	
1.23281291e+06 	 2.046842e-05 	 2.031994e+07 	
1.23291296e+06 	 2.040022e-05 	 2.031233e+07 	
1.23301301e+06 	 2.033233e-05 	 2.030473e+07 	
1.23311306e+06 	 2.026371e-05 	 2.029716e+07 	
1.23321311e+06 	 2.019639e-05 	 2.028958e+07 	
1.23331316e+06 	 2.012935e-05 	 2.028200e+07 	
1.23341321e+06 	 2.006259e-05 	 2.027443e+07 	
1.23351326e+06 	 1.999611e-05 	 2.026686e+07 	
1.23361331e+06 	 1.992991e-05 	 2.025931e+07 	
1.23371336e+06 	 1.986396e-05 	 2.025176e+07 	
1.23381341e+06 	 1.979828e-05 	 2.024421e+07 	
1.23391346e+06 	 1.973285e-05 	 2.023667e+07 	
1.23401351e+06 	 1.966768e-05 	 2.022914e+07 	
1.23411356e+06 	 1.960275e-05 	 2.022162e+07 	
1.23421361e+06 	 1.953807e-05 	 2.021410e+07 	
1.23431366e+06 	 1.947362e-05 	 2.020659e+07 	
1.23441371e+06 	 1.940940e-05 	 2.019909e+07 	
1.23451376e+06 	 1.934542e-05 	 2.019159e+07 	
1.23461381e+06 	 1.928165e-05 	 2.018410e+07 	
1.23471386e+06 	 1.921811e-05 	 2.017661e+07 	
1.23481391e+06 	 1.915479e-05 	 2.016913e+07 	
1.23491396e+06 	 1.909168e-05 	 2.016166e+07 	
1.23501401e+06 	 1.902877e-05 	 2.015419e+07 	
1.23511406e+06 	 1.896607e-05 	 2.014673e+07 	
1.23521411e+06 	 1.890358e-05 	 2.013928e+07 	
1.23531416e+06 	 1.884128e-05 	 2.013183e+07 	
1.23541421e+06 	 1.877917e-05 	 2.012439e+07 	
1.23551426e+06 	 1.871725e-05 	 2.011695e+07 	
1.23561431e+06 	 1.865552e-05 	 2.010952e+07 	
