r (cm)        	 rho (g/cm3) 	 T (K)       		 Linf = 3.764283e+36
1.20000255e+06 	 4.629351e+05 	 4.521628e+08 	
1.20000966e+06 	 4.453252e+05 	 4.469862e+08 	
1.20005064e+06 	 3.529814e+05 	 4.171350e+08 	
1.20008458e+06 	 2.874703e+05 	 3.923593e+08 	
1.20011853e+06 	 2.310446e+05 	 3.675377e+08 	
1.20015276e+06 	 1.825454e+05 	 3.424585e+08 	
1.20018107e+06 	 1.482469e+05 	 3.216748e+08 	
1.20020939e+06 	 1.187523e+05 	 3.008519e+08 	
1.20023791e+06 	 9.346957e+04 	 2.798295e+08 	
1.20026146e+06 	 7.565779e+04 	 2.624409e+08 	
1.20028501e+06 	 6.037007e+04 	 2.450193e+08 	
1.20030871e+06 	 4.730799e+04 	 2.274487e+08 	
1.20032823e+06 	 3.814742e+04 	 2.129487e+08 	
1.20034776e+06 	 3.030278e+04 	 1.984220e+08 	
1.20036738e+06 	 2.362590e+04 	 1.837890e+08 	
1.20038351e+06 	 1.896831e+04 	 1.717465e+08 	
1.20039963e+06 	 1.499039e+04 	 1.596827e+08 	
1.20041581e+06 	 1.161980e+04 	 1.475487e+08 	
1.20042907e+06 	 9.283198e+03 	 1.375951e+08 	
1.20044232e+06 	 7.293712e+03 	 1.276252e+08 	
1.20045561e+06 	 5.616723e+03 	 1.176146e+08 	
1.20046645e+06 	 4.462532e+03 	 1.094339e+08 	
1.20047729e+06 	 3.483268e+03 	 1.012410e+08 	
1.20048813e+06 	 2.662736e+03 	 9.303138e+07 	
1.20049694e+06 	 2.102654e+03 	 8.635181e+07 	
1.20050575e+06 	 1.629350e+03 	 7.966344e+07 	
1.20051455e+06 	 1.235445e+03 	 7.297696e+07 	
1.20052166e+06 	 9.690905e+02 	 6.756421e+07 	
1.20052877e+06 	 7.450000e+02 	 6.214543e+07 	
1.20053586e+06 	 5.599116e+02 	 5.674259e+07 	
1.20054155e+06 	 4.360849e+02 	 5.239475e+07 	
1.20054725e+06 	 3.324057e+02 	 4.804310e+07 	
1.20055290e+06 	 2.474854e+02 	 4.371756e+07 	
1.20055741e+06 	 1.913800e+02 	 4.026295e+07 	
1.20056193e+06 	 1.446324e+02 	 3.680639e+07 	
1.20056639e+06 	 1.067097e+02 	 3.338591e+07 	
1.20056991e+06 	 8.207930e+01 	 3.068930e+07 	
1.20057343e+06 	 6.163088e+01 	 2.799272e+07 	
1.20057649e+06 	 4.693984e+01 	 2.565052e+07 	
1.20057955e+06 	 3.482956e+01 	 2.331027e+07 	
1.20058203e+06 	 2.671396e+01 	 2.141296e+07 	
1.20058409e+06 	 2.102686e+01 	 1.983789e+07 	
1.20058616e+06 	 1.622248e+01 	 1.826793e+07 	
1.20058777e+06 	 1.304027e+01 	 1.705001e+07 	
1.20058938e+06 	 1.030994e+01 	 1.583946e+07 	
1.20059068e+06 	 8.403790e+00 	 1.486631e+07 	
1.20059199e+06 	 6.751427e+00 	 1.390330e+07 	
1.20059305e+06 	 5.580506e+00 	 1.312970e+07 	
1.20059411e+06 	 4.555091e+00 	 1.236881e+07 	
1.20059517e+06 	 3.665180e+00 	 1.162492e+07 	
1.20059602e+06 	 3.044069e+00 	 1.104573e+07 	
1.20059687e+06 	 2.498448e+00 	 1.048473e+07 	
1.20059813e+06 	 1.817030e+00 	 9.694722e+06 	
1.20059897e+06 	 1.441900e+00 	 9.204340e+06 	
1.20059981e+06 	 1.124650e+00 	 8.748905e+06 	
1.20059998e+06 	 1.067265e+00 	 8.661707e+06 	
1.20060000e+06 	 1.061645e+00 	 8.653079e+06 	
1.20061667e+06 	 5.053975e-04 	 6.152801e+06 	
1.20063334e+06 	 9.419787e-08 	 6.118991e+06 	
1.20065002e+06 	 1.734161e-11 	 6.118491e+06 	
1.37727346e+06 	 1.000000e-20 	 5.619616e+06 	
1.57987935e+06 	 1.000000e-20 	 5.176607e+06 	
1.81228990e+06 	 1.000000e-20 	 4.779485e+06 	
2.07888955e+06 	 1.000000e-20 	 4.420905e+06 	
2.38470775e+06 	 1.000000e-20 	 4.095277e+06 	
2.73551379e+06 	 1.000000e-20 	 3.798223e+06 	
3.13792569e+06 	 1.000000e-20 	 3.526235e+06 	
3.59953501e+06 	 1.000000e-20 	 3.276449e+06 	
4.12905006e+06 	 1.000000e-20 	 3.046480e+06 	
4.73646022e+06 	 1.000000e-20 	 2.834318e+06 	
5.43322438e+06 	 1.000000e-20 	 2.638245e+06 	
6.23248708e+06 	 1.000000e-20 	 2.456776e+06 	
7.14932653e+06 	 1.000000e-20 	 2.288617e+06 	
8.20103904e+06 	 1.000000e-20 	 2.132627e+06 	
9.40746531e+06 	 1.000000e-20 	 1.987797e+06 	
1.07913648e+07 	 1.000000e-20 	 1.853225e+06 	
1.23788448e+07 	 1.000000e-20 	 1.728104e+06 	
1.41998535e+07 	 1.000000e-20 	 1.611703e+06 	
1.62887445e+07 	 1.000000e-20 	 1.503364e+06 	
1.86849249e+07 	 1.000000e-20 	 1.402485e+06 	
2.14335991e+07 	 1.000000e-20 	 1.308518e+06 	
2.45866212e+07 	 1.000000e-20 	 1.220964e+06 	
2.82034733e+07 	 1.000000e-20 	 1.139362e+06 	
3.23523880e+07 	 1.000000e-20 	 1.063290e+06 	
3.71116351e+07 	 1.000000e-20 	 9.923590e+05 	
4.25709983e+07 	 1.000000e-20 	 9.262096e+05 	
4.88334695e+07 	 1.000000e-20 	 8.645103e+05 	
5.60171911e+07 	 1.000000e-20 	 8.069541e+05 	
6.42576848e+07 	 1.000000e-20 	 7.532565e+05 	
7.37104089e+07 	 1.000000e-20 	 7.031539e+05 	
8.45536902e+07 	 1.000000e-20 	 6.564015e+05 	
9.69920889e+07 	 1.000000e-20 	 6.127720e+05 	
1.11260257e+08 	 1.000000e-20 	 5.720541e+05 	
1.27627366e+08 	 1.000000e-20 	 5.340513e+05 	
1.46402183e+08 	 1.000000e-20 	 4.985809e+05 	
1.67938898e+08 	 1.000000e-20 	 4.654726e+05 	
1.92643804e+08 	 1.000000e-20 	 4.345680e+05 	
2.20982962e+08 	 1.000000e-20 	 4.057193e+05 	
2.53490996e+08 	 1.000000e-20 	 3.787892e+05 	
2.90781172e+08 	 1.000000e-20 	 3.536493e+05 	
3.33556977e+08 	 1.000000e-20 	 3.301802e+05 	
3.82625382e+08 	 1.000000e-20 	 3.082704e+05 	
4.38912068e+08 	 1.000000e-20 	 2.878159e+05 	
5.03478893e+08 	 1.000000e-20 	 2.687198e+05 	
5.77543918e+08 	 1.000000e-20 	 2.508917e+05 	
6.62504391e+08 	 1.000000e-20 	 2.342472e+05 	
7.59963103e+08 	 1.000000e-20 	 2.187076e+05 	
8.71758627e+08 	 1.000000e-20 	 2.041993e+05 	
1.00000000e+09 	 1.000000e-20 	 1.906539e+05 	
