r (cm)        	 rho (g/cm3) 	 T (K)       		 Linf = 1.336549e+37
1.19997235e+06 	 3.768742e+05 	 6.071019e+08 	
1.20002529e+06 	 3.029354e+05 	 5.697150e+08 	
1.20006776e+06 	 2.516202e+05 	 5.396731e+08 	
1.20011024e+06 	 2.068377e+05 	 5.095873e+08 	
1.20015271e+06 	 1.680554e+05 	 4.794544e+08 	
1.20019576e+06 	 1.343378e+05 	 4.488567e+08 	
1.20022988e+06 	 1.112768e+05 	 4.245682e+08 	
1.20026400e+06 	 9.118065e+04 	 4.002421e+08 	
1.20029812e+06 	 7.380745e+04 	 3.758760e+08 	
1.20033264e+06 	 5.876451e+04 	 3.511846e+08 	
1.20036136e+06 	 4.801856e+04 	 3.306015e+08 	
1.20039008e+06 	 3.874282e+04 	 3.099839e+08 	
1.20041911e+06 	 3.073295e+04 	 2.891097e+08 	
1.20044322e+06 	 2.503294e+04 	 2.717438e+08 	
1.20046732e+06 	 2.012164e+04 	 2.543487e+08 	
1.20049166e+06 	 1.589396e+04 	 2.367556e+08 	
1.20051183e+06 	 1.289877e+04 	 2.221535e+08 	
1.20053199e+06 	 1.032349e+04 	 2.075273e+08 	
1.20055233e+06 	 8.114801e+03 	 1.927528e+08 	
1.20056913e+06 	 6.558021e+03 	 1.805231e+08 	
1.20058594e+06 	 5.222820e+03 	 1.682740e+08 	
1.20060286e+06 	 4.082547e+03 	 1.559180e+08 	
1.20061680e+06 	 3.283584e+03 	 1.457220e+08 	
1.20063074e+06 	 2.600327e+03 	 1.355106e+08 	
1.20064476e+06 	 2.019687e+03 	 1.252268e+08 	
1.20065627e+06 	 1.615615e+03 	 1.167707e+08 	
1.20066778e+06 	 1.271229e+03 	 1.083028e+08 	
1.20067933e+06 	 9.802213e+02 	 9.979061e+07 	
1.20068878e+06 	 7.792950e+02 	 9.281964e+07 	
1.20069823e+06 	 6.087170e+02 	 8.583995e+07 	
1.20070770e+06 	 4.655153e+02 	 7.883851e+07 	
1.20071540e+06 	 3.675392e+02 	 7.313190e+07 	
1.20072311e+06 	 2.847348e+02 	 6.741925e+07 	
1.20073081e+06 	 2.157379e+02 	 6.170280e+07 	
1.20073705e+06 	 1.690505e+02 	 5.707225e+07 	
1.20074328e+06 	 1.297889e+02 	 5.243816e+07 	
1.20074949e+06 	 9.736506e+01 	 4.781748e+07 	
1.20075444e+06 	 7.585840e+01 	 4.413251e+07 	
1.20075940e+06 	 5.783886e+01 	 4.044697e+07 	
1.20076427e+06 	 4.319474e+01 	 3.682183e+07 	
1.20076823e+06 	 3.333849e+01 	 3.387976e+07 	
1.20077218e+06 	 2.513334e+01 	 3.094187e+07 	
1.20077540e+06 	 1.956148e+01 	 2.855548e+07 	
1.20077848e+06 	 1.508955e+01 	 2.628696e+07 	
1.20078091e+06 	 1.208726e+01 	 2.450156e+07 	
1.20078334e+06 	 9.517700e+00 	 2.272748e+07 	
1.20078532e+06 	 7.714663e+00 	 2.128990e+07 	
1.20078731e+06 	 6.158029e+00 	 1.986788e+07 	
1.20078893e+06 	 5.056716e+00 	 1.872271e+07 	
1.20079055e+06 	 4.096977e+00 	 1.759680e+07 	
1.20079217e+06 	 3.268800e+00 	 1.649643e+07 	
1.20079379e+06 	 2.562308e+00 	 1.542989e+07 	
1.20079541e+06 	 1.967779e+00 	 1.440779e+07 	
1.20079738e+06 	 1.384570e+00 	 1.324943e+07 	
1.20079858e+06 	 1.092884e+00 	 1.258956e+07 	
1.20079979e+06 	 8.478551e-01 	 1.197786e+07 	
1.20079998e+06 	 8.131332e-01 	 1.188595e+07 	
1.20080000e+06 	 8.097192e-01 	 1.187683e+07 	
1.20081667e+06 	 4.796419e-03 	 8.580031e+06 	
1.20083334e+06 	 1.177397e-05 	 8.406354e+06 	
1.20085002e+06 	 2.764317e-08 	 8.398531e+06 	
1.37749820e+06 	 1.000000e-20 	 7.713282e+06 	
1.58013178e+06 	 1.000000e-20 	 7.105260e+06 	
1.81257330e+06 	 1.000000e-20 	 6.560210e+06 	
2.07920757e+06 	 1.000000e-20 	 6.068055e+06 	
2.38506445e+06 	 1.000000e-20 	 5.621122e+06 	
2.73591367e+06 	 1.000000e-20 	 5.213405e+06 	
3.13837372e+06 	 1.000000e-20 	 4.840092e+06 	
3.60003670e+06 	 1.000000e-20 	 4.497248e+06 	
4.12961152e+06 	 1.000000e-20 	 4.181603e+06 	
4.73708818e+06 	 1.000000e-20 	 3.890399e+06 	
5.43392624e+06 	 1.000000e-20 	 3.621276e+06 	
6.23327100e+06 	 1.000000e-20 	 3.372197e+06 	
7.15020147e+06 	 1.000000e-20 	 3.141386e+06 	
8.20201481e+06 	 1.000000e-20 	 2.927278e+06 	
9.40855264e+06 	 1.000000e-20 	 2.728487e+06 	
1.07925753e+07 	 1.000000e-20 	 2.543777e+06 	
1.23801914e+07 	 1.000000e-20 	 2.372037e+06 	
1.42013499e+07 	 1.000000e-20 	 2.212267e+06 	
1.62904057e+07 	 1.000000e-20 	 2.063561e+06 	
1.86867669e+07 	 1.000000e-20 	 1.925095e+06 	
2.14356392e+07 	 1.000000e-20 	 1.796117e+06 	
2.45888778e+07 	 1.000000e-20 	 1.675940e+06 	
2.82059661e+07 	 1.000000e-20 	 1.563933e+06 	
3.23551375e+07 	 1.000000e-20 	 1.459516e+06 	
3.71146628e+07 	 1.000000e-20 	 1.362155e+06 	
4.25743268e+07 	 1.000000e-20 	 1.271358e+06 	
4.88371216e+07 	 1.000000e-20 	 1.186669e+06 	
5.60211899e+07 	 1.000000e-20 	 1.107666e+06 	
6.42620535e+07 	 1.000000e-20 	 1.033960e+06 	
7.37151697e+07 	 1.000000e-20 	 9.651881e+05 	
8.45588639e+07 	 1.000000e-20 	 9.010147e+05 	
9.69976940e+07 	 1.000000e-20 	 8.411278e+05 	
1.11266308e+08 	 1.000000e-20 	 7.852373e+05 	
1.27633873e+08 	 1.000000e-20 	 7.330736e+05 	
1.46409150e+08 	 1.000000e-20 	 6.843857e+05 	
1.67946319e+08 	 1.000000e-20 	 6.389401e+05 	
1.92651662e+08 	 1.000000e-20 	 5.965193e+05 	
2.20991225e+08 	 1.000000e-20 	 5.569206e+05 	
2.53499612e+08 	 1.000000e-20 	 5.199551e+05 	
2.90790068e+08 	 1.000000e-20 	 4.854471e+05 	
3.33566048e+08 	 1.000000e-20 	 4.532322e+05 	
3.82634486e+08 	 1.000000e-20 	 4.231577e+05 	
4.38921020e+08 	 1.000000e-20 	 3.950809e+05 	
5.03487450e+08 	 1.000000e-20 	 3.688686e+05 	
5.77551771e+08 	 1.000000e-20 	 3.443967e+05 	
6.62511147e+08 	 1.000000e-20 	 3.215495e+05 	
7.59968270e+08 	 1.000000e-20 	 3.002189e+05 	
8.71761590e+08 	 1.000000e-20 	 2.803040e+05 	
1.00000000e+09 	 1.000000e-20 	 2.617107e+05 	
