r (cm)        	 rho (g/cm3) 	 T (K)       		 Linf = 2.974110e+38
1.20000832e+06 	 1.355742e+05 	 1.224665e+09 	
1.20008304e+06 	 1.216836e+05 	 1.191003e+09 	
1.20018456e+06 	 1.046912e+05 	 1.145705e+09 	
1.20028333e+06 	 9.007005e+04 	 1.102133e+09 	
1.20038209e+06 	 7.716381e+04 	 1.059073e+09 	
1.20048086e+06 	 6.581481e+04 	 1.016543e+09 	
1.20056280e+06 	 5.747490e+04 	 9.816775e+08 	
1.20064474e+06 	 5.002549e+04 	 9.472045e+08 	
1.20072668e+06 	 4.339158e+04 	 9.131376e+08 	
1.20080862e+06 	 3.750252e+04 	 8.794904e+08 	
1.20089131e+06 	 3.224722e+04 	 8.459759e+08 	
1.20097400e+06 	 2.761878e+04 	 8.129184e+08 	
1.20104151e+06 	 2.426333e+04 	 7.862818e+08 	
1.20110901e+06 	 2.125511e+04 	 7.599690e+08 	
1.20117651e+06 	 1.856528e+04 	 7.339891e+08 	
1.20124402e+06 	 1.616672e+04 	 7.083514e+08 	
1.20131152e+06 	 1.403397e+04 	 6.830654e+08 	
1.20137820e+06 	 1.216495e+04 	 6.584442e+08 	
1.20144487e+06 	 1.051045e+04 	 6.341853e+08 	
1.20151155e+06 	 9.050357e+03 	 6.102985e+08 	
1.20156672e+06 	 7.975764e+03 	 5.908208e+08 	
1.20162190e+06 	 7.011548e+03 	 5.716106e+08 	
1.20167707e+06 	 6.148398e+03 	 5.526736e+08 	
1.20173224e+06 	 5.377584e+03 	 5.340159e+08 	
1.20178742e+06 	 4.690942e+03 	 5.156433e+08 	
1.20184240e+06 	 4.082829e+03 	 4.976239e+08 	
1.20189739e+06 	 3.543706e+03 	 4.798996e+08 	
1.20195237e+06 	 3.067036e+03 	 4.624765e+08 	
1.20199763e+06 	 2.717248e+03 	 4.483656e+08 	
1.20204288e+06 	 2.402507e+03 	 4.344661e+08 	
1.20208814e+06 	 2.119863e+03 	 4.207814e+08 	
1.20213340e+06 	 1.866556e+03 	 4.073149e+08 	
1.20217866e+06 	 1.640013e+03 	 3.940697e+08 	
1.20222392e+06 	 1.437836e+03 	 3.810490e+08 	
1.20227039e+06 	 1.253231e+03 	 3.679146e+08 	
1.20231687e+06 	 1.089735e+03 	 3.550238e+08 	
1.20235510e+06 	 9.696107e+02 	 3.446054e+08 	
1.20239333e+06 	 8.612993e+02 	 3.343558e+08 	
1.20243156e+06 	 7.638026e+02 	 3.242768e+08 	
1.20246979e+06 	 6.761909e+02 	 3.143701e+08 	
1.20250802e+06 	 5.975988e+02 	 3.046373e+08 	
1.20254625e+06 	 5.272221e+02 	 2.950800e+08 	
1.20258448e+06 	 4.643151e+02 	 2.856996e+08 	
1.20262398e+06 	 4.064313e+02 	 2.761949e+08 	
1.20266348e+06 	 3.550821e+02 	 2.668821e+08 	
1.20269616e+06 	 3.170743e+02 	 2.593229e+08 	
1.20272884e+06 	 2.827576e+02 	 2.518967e+08 	
1.20276153e+06 	 2.518169e+02 	 2.446041e+08 	
1.20279421e+06 	 2.239598e+02 	 2.374459e+08 	
1.20282689e+06 	 1.989147e+02 	 2.304224e+08 	
1.20285957e+06 	 1.764302e+02 	 2.235342e+08 	
1.20289225e+06 	 1.562740e+02 	 2.167818e+08 	
1.20292493e+06 	 1.382315e+02 	 2.101654e+08 	
1.20295943e+06 	 1.212641e+02 	 2.033304e+08 	
1.20298798e+06 	 1.086788e+02 	 1.977869e+08 	
1.20301654e+06 	 9.729793e+01 	 1.923476e+08 	
1.20304509e+06 	 8.701810e+01 	 1.870126e+08 	
1.20307365e+06 	 7.774345e+01 	 1.817820e+08 	
1.20310220e+06 	 6.938533e+01 	 1.766556e+08 	
1.20313076e+06 	 6.186188e+01 	 1.716333e+08 	
1.20315931e+06 	 5.509758e+01 	 1.667150e+08 	
1.20318787e+06 	 4.902288e+01 	 1.619004e+08 	
1.20321642e+06 	 4.357380e+01 	 1.571893e+08 	
1.20324498e+06 	 3.869154e+01 	 1.525814e+08 	
1.20327041e+06 	 3.477648e+01 	 1.485637e+08 	
1.20329585e+06 	 3.123320e+01 	 1.446273e+08 	
1.20332128e+06 	 2.802930e+01 	 1.407718e+08 	
1.20334671e+06 	 2.513492e+01 	 1.369968e+08 	
1.20337215e+06 	 2.252250e+01 	 1.333018e+08 	
1.20339758e+06 	 2.016668e+01 	 1.296865e+08 	
1.20342301e+06 	 1.804417e+01 	 1.261504e+08 	
1.20344845e+06 	 1.613353e+01 	 1.226930e+08 	
1.20347388e+06 	 1.441512e+01 	 1.193137e+08 	
1.20349931e+06 	 1.287094e+01 	 1.160119e+08 	
1.20352475e+06 	 1.148451e+01 	 1.127870e+08 	
1.20355018e+06 	 1.024076e+01 	 1.096385e+08 	
1.20357561e+06 	 9.125947e+00 	 1.065655e+08 	
1.20360105e+06 	 8.127516e+00 	 1.035674e+08 	
1.20362648e+06 	 7.234040e+00 	 1.006435e+08 	
1.20365173e+06 	 6.440448e+00 	 9.781275e+07 	
1.20367699e+06 	 5.730822e+00 	 9.505362e+07 	
1.20370224e+06 	 5.096753e+00 	 9.236524e+07 	
1.20372750e+06 	 4.530609e+00 	 8.974677e+07 	
1.20375275e+06 	 4.025474e+00 	 8.719736e+07 	
1.20377800e+06 	 3.575085e+00 	 8.471612e+07 	
1.20380326e+06 	 3.173778e+00 	 8.230214e+07 	
1.20382851e+06 	 2.816436e+00 	 7.995449e+07 	
1.20385377e+06 	 2.498441e+00 	 7.767222e+07 	
1.20387902e+06 	 2.215631e+00 	 7.545435e+07 	
1.20390427e+06 	 1.964259e+00 	 7.329991e+07 	
1.20392953e+06 	 1.740951e+00 	 7.120789e+07 	
1.20395689e+06 	 1.527151e+00 	 6.901027e+07 	
1.20398426e+06 	 1.339307e+00 	 6.688343e+07 	
1.20401162e+06 	 1.174357e+00 	 6.482605e+07 	
1.20403899e+06 	 1.029583e+00 	 6.283679e+07 	
1.20406635e+06 	 9.025764e-01 	 6.091430e+07 	
1.20409372e+06 	 7.912031e-01 	 5.905721e+07 	
1.20412108e+06 	 6.935758e-01 	 5.726418e+07 	
1.20414845e+06 	 6.080264e-01 	 5.553382e+07 	
1.20417886e+06 	 5.253361e-01 	 5.368267e+07 	
1.20420927e+06 	 4.539771e-01 	 5.190537e+07 	
1.20423968e+06 	 3.924108e-01 	 5.020005e+07 	
1.20427009e+06 	 3.393018e-01 	 4.856483e+07 	
1.20430051e+06 	 2.934928e-01 	 4.699786e+07 	
1.20433368e+06 	 2.506728e-01 	 4.536421e+07 	
1.20436685e+06 	 2.142302e-01 	 4.380721e+07 	
1.20440003e+06 	 1.832107e-01 	 4.232451e+07 	
1.20443551e+06 	 1.551177e-01 	 4.081833e+07 	
1.20447099e+06 	 1.314565e-01 	 3.939165e+07 	
1.20450927e+06 	 1.100861e-01 	 3.793843e+07 	
1.20454755e+06 	 9.230697e-02 	 3.657102e+07 	
1.20458917e+06 	 7.633220e-02 	 3.517740e+07 	
1.20463080e+06 	 6.322713e-02 	 3.387682e+07 	
1.20467644e+06 	 5.153048e-02 	 3.255251e+07 	
1.20472209e+06 	 4.208689e-02 	 3.132918e+07 	
1.20477092e+06 	 3.397178e-02 	 3.012580e+07 	
1.20481976e+06 	 2.748903e-02 	 2.902479e+07 	
1.20487602e+06 	 2.160357e-02 	 2.787449e+07 	
1.20492238e+06 	 1.775597e-02 	 2.701497e+07 	
1.20499224e+06 	 1.326438e-02 	 2.585753e+07 	
1.20499923e+06 	 1.288642e-02 	 2.575032e+07 	
1.20499993e+06 	 1.284925e-02 	 2.573968e+07 	
1.20500000e+06 	 1.284554e-02 	 2.573861e+07 	
1.20510005e+06 	 8.533944e-03 	 2.435947e+07 	
1.20520010e+06 	 5.720338e-03 	 2.323466e+07 	
1.20530015e+06 	 3.867481e-03 	 2.232019e+07 	
1.20540020e+06 	 2.636516e-03 	 2.157778e+07 	
1.20550025e+06 	 1.811523e-03 	 2.097496e+07 	
1.20560030e+06 	 1.253881e-03 	 2.048484e+07 	
1.20570035e+06 	 8.737912e-04 	 2.008549e+07 	
1.20580040e+06 	 6.126271e-04 	 1.975925e+07 	
1.20590045e+06 	 4.318225e-04 	 1.949195e+07 	
1.20600050e+06 	 3.058153e-04 	 1.927230e+07 	
1.20610055e+06 	 2.174383e-04 	 1.909128e+07 	
1.20620060e+06 	 1.551286e-04 	 1.894163e+07 	
1.20630065e+06 	 1.109926e-04 	 1.881759e+07 	
1.20640070e+06 	 7.960990e-05 	 1.871450e+07 	
1.20650075e+06 	 5.720913e-05 	 1.862858e+07 	
1.20660080e+06 	 4.118298e-05 	 1.855681e+07 	
1.20670085e+06 	 2.968557e-05 	 1.849671e+07 	
1.20680090e+06 	 2.142403e-05 	 1.844626e+07 	
1.20690095e+06 	 1.547489e-05 	 1.840381e+07 	
1.20700100e+06 	 1.118548e-05 	 1.836803e+07 	
1.20710105e+06 	 8.089910e-06 	 1.833778e+07 	
1.20720110e+06 	 5.853658e-06 	 1.831218e+07 	
1.20730115e+06 	 4.236900e-06 	 1.829031e+07 	
1.20740120e+06 	 3.067405e-06 	 1.827181e+07 	
1.20750125e+06 	 2.221075e-06 	 1.825603e+07 	
1.20760130e+06 	 1.608407e-06 	 1.824255e+07 	
1.20770135e+06 	 1.164782e-06 	 1.823101e+07 	
1.20780140e+06 	 8.435080e-07 	 1.822110e+07 	
1.20790145e+06 	 6.108177e-07 	 1.821257e+07 	
1.20800150e+06 	 4.423038e-07 	 1.820497e+07 	
1.20810155e+06 	 3.202289e-07 	 1.819854e+07 	
1.20820160e+06 	 2.318148e-07 	 1.819295e+07 	
1.20830165e+06 	 1.677852e-07 	 1.818806e+07 	
1.20840170e+06 	 1.214139e-07 	 1.818402e+07 	
1.20850175e+06 	 8.784533e-08 	 1.818028e+07 	
1.20860180e+06 	 6.354494e-08 	 1.817697e+07 	
1.20870185e+06 	 4.595688e-08 	 1.817402e+07 	
1.20880190e+06 	 3.322760e-08 	 1.817172e+07 	
1.20890195e+06 	 2.401961e-08 	 1.816944e+07 	
1.20900200e+06 	 1.735913e-08 	 1.816741e+07 	
1.20910205e+06 	 1.254316e-08 	 1.816522e+07 	
1.20920210e+06 	 9.060630e-09 	 1.816350e+07 	
1.20930215e+06 	 6.543682e-09 	 1.816149e+07 	
1.20940220e+06 	 4.724558e-09 	 1.815980e+07 	
1.20950225e+06 	 3.410103e-09 	 1.815873e+07 	
1.20960230e+06 	 2.460813e-09 	 1.815729e+07 	
1.20970235e+06 	 1.775265e-09 	 1.815628e+07 	
1.20980240e+06 	 1.280390e-09 	 1.815508e+07 	
1.20990245e+06 	 9.232242e-10 	 1.815390e+07 	
1.21000250e+06 	 6.655077e-10 	 1.815286e+07 	
1.21010255e+06 	 4.796080e-10 	 1.815172e+07 	
1.21020260e+06 	 3.455419e-10 	 1.815078e+07 	
1.21030265e+06 	 2.488866e-10 	 1.814963e+07 	
1.21040270e+06 	 1.792185e-10 	 1.814877e+07 	
1.21050275e+06 	 1.290177e-10 	 1.814773e+07 	
1.21060280e+06 	 9.285347e-11 	 1.814681e+07 	
1.21070285e+06 	 6.680839e-11 	 1.814582e+07 	
1.21080290e+06 	 4.805588e-11 	 1.814488e+07 	
1.21090295e+06 	 3.455777e-11 	 1.814391e+07 	
1.38879364e+06 	 1.000000e-20 	 1.666970e+07 	
1.59281780e+06 	 1.000000e-20 	 1.535954e+07 	
1.82681463e+06 	 1.000000e-20 	 1.418436e+07 	
2.09518734e+06 	 1.000000e-20 	 1.312270e+07 	
2.40298601e+06 	 1.000000e-20 	 1.215821e+07 	
2.75600260e+06 	 1.000000e-20 	 1.127805e+07 	
3.16087997e+06 	 1.000000e-20 	 1.047194e+07 	
3.62523684e+06 	 1.000000e-20 	 9.731430e+06 	
4.15781121e+06 	 1.000000e-20 	 9.049523e+06 	
4.76862473e+06 	 1.000000e-20 	 8.420294e+06 	
5.46917131e+06 	 1.000000e-20 	 7.838677e+06 	
6.27263343e+06 	 1.000000e-20 	 7.300295e+06 	
7.19413013e+06 	 1.000000e-20 	 6.801323e+06 	
8.25100157e+06 	 1.000000e-20 	 6.338399e+06 	
9.46313533e+06 	 1.000000e-20 	 5.908536e+06 	
1.08533406e+07 	 1.000000e-20 	 5.509073e+06 	
1.24477774e+07 	 1.000000e-20 	 5.137617e+06 	
1.42764488e+07 	 1.000000e-20 	 4.792014e+06 	
1.63737658e+07 	 1.000000e-20 	 4.470309e+06 	
1.87791943e+07 	 1.000000e-20 	 4.170726e+06 	
2.15379982e+07 	 1.000000e-20 	 3.891643e+06 	
2.47020910e+07 	 1.000000e-20 	 3.631578e+06 	
2.83310126e+07 	 1.000000e-20 	 3.389171e+06 	
3.24930500e+07 	 1.000000e-20 	 3.163168e+06 	
3.72665217e+07 	 1.000000e-20 	 2.952419e+06 	
4.27412521e+07 	 1.000000e-20 	 2.755859e+06 	
4.90202612e+07 	 1.000000e-20 	 2.572505e+06 	
5.62217037e+07 	 1.000000e-20 	 2.401448e+06 	
6.44810919e+07 	 1.000000e-20 	 2.241844e+06 	
7.39538458e+07 	 1.000000e-20 	 2.092912e+06 	
8.48182181e+07 	 1.000000e-20 	 1.953927e+06 	
9.72786478e+07 	 1.000000e-20 	 1.824213e+06 	
1.11569608e+08 	 1.000000e-20 	 1.703145e+06 	
1.27960016e+08 	 1.000000e-20 	 1.590141e+06 	
1.46758298e+08 	 1.000000e-20 	 1.484657e+06 	
1.68318189e+08 	 1.000000e-20 	 1.386189e+06 	
1.93045388e+08 	 1.000000e-20 	 1.294266e+06 	
2.21405197e+08 	 1.000000e-20 	 1.208452e+06 	
2.53931274e+08 	 1.000000e-20 	 1.128338e+06 	
2.91235675e+08 	 1.000000e-20 	 1.053543e+06 	
3.34020370e+08 	 1.000000e-20 	 9.837123e+05 	
3.83090457e+08 	 1.000000e-20 	 9.185157e+05 	
4.39369307e+08 	 1.000000e-20 	 8.576444e+05 	
5.03915939e+08 	 1.000000e-20 	 8.008108e+05 	
5.77944954e+08 	 1.000000e-20 	 7.477462e+05 	
6.62849385e+08 	 1.000000e-20 	 6.982003e+05 	
7.60226910e+08 	 1.000000e-20 	 6.519392e+05 	
8.71909921e+08 	 1.000000e-20 	 6.087449e+05 	
1.00000000e+09 	 1.000000e-20 	 5.684136e+05 	
