r (cm)        	 rho (g/cm3) 	 T (K)       		 Linf = 5.658593e+35
1.19991240e+06 	 5.605079e+05 	 2.976406e+08 	
1.19992958e+06 	 4.850550e+05 	 2.848246e+08 	
1.19995433e+06 	 3.892524e+05 	 2.663462e+08 	
1.19997907e+06 	 3.074998e+05 	 2.478448e+08 	
1.20000383e+06 	 2.384899e+05 	 2.293035e+08 	
1.20002403e+06 	 1.908560e+05 	 2.141670e+08 	
1.20004422e+06 	 1.502767e+05 	 1.990120e+08 	
1.20006441e+06 	 1.161177e+05 	 1.838370e+08 	
1.20008084e+06 	 9.263102e+04 	 1.714728e+08 	
1.20009727e+06 	 7.266244e+04 	 1.590942e+08 	
1.20011369e+06 	 5.590933e+04 	 1.467129e+08 	
1.20012701e+06 	 4.444396e+04 	 1.366498e+08 	
1.20014034e+06 	 3.471794e+04 	 1.265760e+08 	
1.20015364e+06 	 2.658970e+04 	 1.165139e+08 	
1.20016440e+06 	 2.105696e+04 	 1.083602e+08 	
1.20017516e+06 	 1.637514e+04 	 1.001988e+08 	
1.20018589e+06 	 1.247949e+04 	 9.206054e+07 	
1.20019454e+06 	 9.843847e+03 	 8.548866e+07 	
1.20020319e+06 	 7.619385e+03 	 7.891163e+07 	
1.20021180e+06 	 5.777219e+03 	 7.236563e+07 	
1.20021871e+06 	 4.539072e+03 	 6.710030e+07 	
1.20022563e+06 	 3.496861e+03 	 6.183165e+07 	
1.20023249e+06 	 2.638047e+03 	 5.659890e+07 	
1.20023799e+06 	 2.064784e+03 	 5.240769e+07 	
1.20024348e+06 	 1.583491e+03 	 4.821450e+07 	
1.20024893e+06 	 1.188869e+03 	 4.405913e+07 	
1.20025326e+06 	 9.272614e+02 	 4.074538e+07 	
1.20025760e+06 	 7.081546e+02 	 3.743055e+07 	
1.20026189e+06 	 5.293637e+02 	 3.415295e+07 	
1.20026530e+06 	 4.116099e+02 	 3.155033e+07 	
1.20026870e+06 	 3.131977e+02 	 2.894723e+07 	
1.20027206e+06 	 2.332415e+02 	 2.637875e+07 	
1.20027472e+06 	 1.808943e+02 	 2.434740e+07 	
1.20027737e+06 	 1.372245e+02 	 2.231596e+07 	
1.20027999e+06 	 1.018749e+02 	 2.031520e+07 	
1.20028205e+06 	 7.887145e+01 	 1.874011e+07 	
1.20028411e+06 	 5.970514e+01 	 1.716526e+07 	
1.20028613e+06 	 4.424577e+01 	 1.561816e+07 	
1.20028769e+06 	 3.443679e+01 	 1.443236e+07 	
1.20028924e+06 	 2.623144e+01 	 1.324732e+07 	
1.20029073e+06 	 1.969685e+01 	 1.210631e+07 	
1.20029189e+06 	 1.547517e+01 	 1.122392e+07 	
1.20029305e+06 	 1.191845e+01 	 1.034357e+07 	
1.20029394e+06 	 9.608938e+00 	 9.672521e+06 	
1.20029482e+06 	 7.625418e+00 	 9.004535e+06 	
1.20029548e+06 	 6.343799e+00 	 8.509953e+06 	
1.20029614e+06 	 5.217223e+00 	 8.019157e+06 	
1.20029678e+06 	 4.266434e+00 	 7.550453e+06 	
1.20029729e+06 	 3.597044e+00 	 7.181191e+06 	
1.20029780e+06 	 3.002362e+00 	 6.818183e+06 	
1.20029831e+06 	 2.477601e+00 	 6.463588e+06 	
1.20029882e+06 	 2.018095e+00 	 6.120275e+06 	
1.20029933e+06 	 1.619375e+00 	 5.791943e+06 	
1.20029984e+06 	 1.277264e+00 	 5.483124e+06 	
1.20029999e+06 	 1.187434e+00 	 5.397308e+06 	
1.20030000e+06 	 1.178695e+00 	 5.388847e+06 	
1.20031667e+06 	 2.471934e-06 	 3.811597e+06 	
1.20033334e+06 	 2.115088e-12 	 3.810423e+06 	
1.37691761e+06 	 1.000000e-20 	 3.499705e+06 	
1.57947967e+06 	 1.000000e-20 	 3.223788e+06 	
1.81184117e+06 	 1.000000e-20 	 2.976456e+06 	
2.07838600e+06 	 1.000000e-20 	 2.753131e+06 	
2.38414295e+06 	 1.000000e-20 	 2.550332e+06 	
2.73488064e+06 	 1.000000e-20 	 2.365330e+06 	
3.13721628e+06 	 1.000000e-20 	 2.195941e+06 	
3.59874061e+06 	 1.000000e-20 	 2.040380e+06 	
4.12816102e+06 	 1.000000e-20 	 1.897161e+06 	
4.73546590e+06 	 1.000000e-20 	 1.765033e+06 	
5.43211303e+06 	 1.000000e-20 	 1.642926e+06 	
6.23124579e+06 	 1.000000e-20 	 1.529914e+06 	
7.14794112e+06 	 1.000000e-20 	 1.425191e+06 	
8.19949396e+06 	 1.000000e-20 	 1.328047e+06 	
9.40574358e+06 	 1.000000e-20 	 1.237853e+06 	
1.07894478e+07 	 1.000000e-20 	 1.154049e+06 	
1.23767125e+07 	 1.000000e-20 	 1.076129e+06 	
1.41974840e+07 	 1.000000e-20 	 1.003641e+06 	
1.62861141e+07 	 1.000000e-20 	 9.361731e+05 	
1.86820081e+07 	 1.000000e-20 	 8.733513e+05 	
2.14303686e+07 	 1.000000e-20 	 8.148346e+05 	
2.45830477e+07 	 1.000000e-20 	 7.603110e+05 	
2.81995260e+07 	 1.000000e-20 	 7.094944e+05 	
3.23480342e+07 	 1.000000e-20 	 6.621216e+05 	
3.71068405e+07 	 1.000000e-20 	 6.179503e+05 	
4.25657276e+07 	 1.000000e-20 	 5.767570e+05 	
4.88276863e+07 	 1.000000e-20 	 5.383349e+05 	
5.60108586e+07 	 1.000000e-20 	 5.024930e+05 	
6.42507667e+07 	 1.000000e-20 	 4.690540e+05 	
7.37028699e+07 	 1.000000e-20 	 4.378539e+05 	
8.45454973e+07 	 1.000000e-20 	 4.087400e+05 	
9.69832129e+07 	 1.000000e-20 	 3.815710e+05 	
1.11250674e+08 	 1.000000e-20 	 3.562151e+05 	
1.27617060e+08 	 1.000000e-20 	 3.325501e+05 	
1.46391149e+08 	 1.000000e-20 	 3.104621e+05 	
1.67927145e+08 	 1.000000e-20 	 2.898450e+05 	
1.92631359e+08 	 1.000000e-20 	 2.706003e+05 	
2.20969877e+08 	 1.000000e-20 	 2.526359e+05 	
2.53477350e+08 	 1.000000e-20 	 2.358663e+05 	
2.90767084e+08 	 1.000000e-20 	 2.202115e+05 	
3.33542612e+08 	 1.000000e-20 	 2.055971e+05 	
3.82610963e+08 	 1.000000e-20 	 1.919537e+05 	
4.38897891e+08 	 1.000000e-20 	 1.792166e+05 	
5.03465341e+08 	 1.000000e-20 	 1.673255e+05 	
5.77531482e+08 	 1.000000e-20 	 1.562239e+05 	
6.62493692e+08 	 1.000000e-20 	 1.458594e+05 	
7.59954921e+08 	 1.000000e-20 	 1.361829e+05 	
8.71753934e+08 	 1.000000e-20 	 1.271487e+05 	
1.00000000e+09 	 1.000000e-20 	 1.187141e+05 	
