r (cm)        	 rho (g/cm3) 	 T (K)       		 Linf = 1.977668e+35
1.19999928e+06 	 1.104480e+06 	 2.342407e+08 	
1.20000020e+06 	 1.093869e+06 	 2.335512e+08 	
1.20002254e+06 	 8.576828e+05 	 2.168008e+08 	
1.20004098e+06 	 6.915993e+05 	 2.029388e+08 	
1.20005942e+06 	 5.493371e+05 	 1.890434e+08 	
1.20007798e+06 	 4.280930e+05 	 1.750218e+08 	
1.20009326e+06 	 3.433937e+05 	 1.634580e+08 	
1.20010853e+06 	 2.710751e+05 	 1.518672e+08 	
1.20012387e+06 	 2.097746e+05 	 1.401921e+08 	
1.20013645e+06 	 1.672711e+05 	 1.306007e+08 	
1.20014902e+06 	 1.311156e+05 	 1.209882e+08 	
1.20016163e+06 	 1.006591e+05 	 1.113251e+08 	
1.20017193e+06 	 7.972227e+04 	 1.034212e+08 	
1.20018222e+06 	 6.198940e+04 	 9.550121e+07 	
1.20019253e+06 	 4.715844e+04 	 8.755749e+07 	
1.20020090e+06 	 3.706312e+04 	 8.109220e+07 	
1.20020926e+06 	 2.855554e+04 	 7.461475e+07 	
1.20021762e+06 	 2.149868e+04 	 6.813440e+07 	
1.20022437e+06 	 1.674919e+04 	 6.288978e+07 	
1.20023112e+06 	 1.276993e+04 	 5.763628e+07 	
1.20023784e+06 	 9.500403e+03 	 5.239538e+07 	
1.20024324e+06 	 7.328420e+03 	 4.818109e+07 	
1.20024864e+06 	 5.520868e+03 	 4.396051e+07 	
1.20025399e+06 	 4.051838e+03 	 3.976353e+07 	
1.20025827e+06 	 3.090585e+03 	 3.641381e+07 	
1.20026254e+06 	 2.296782e+03 	 3.305981e+07 	
1.20026676e+06 	 1.659695e+03 	 2.973672e+07 	
1.20027010e+06 	 1.250310e+03 	 2.710937e+07 	
1.20027344e+06 	 9.151601e+02 	 2.447935e+07 	
1.20027672e+06 	 6.501648e+02 	 2.188672e+07 	
1.20027928e+06 	 4.842587e+02 	 1.987191e+07 	
1.20028183e+06 	 3.495139e+02 	 1.785599e+07 	
1.20028428e+06 	 2.464064e+02 	 1.592066e+07 	
1.20028626e+06 	 1.796276e+02 	 1.435204e+07 	
1.20028811e+06 	 1.294383e+02 	 1.289011e+07 	
1.20028948e+06 	 9.919918e+01 	 1.181509e+07 	
1.20029084e+06 	 7.410476e+01 	 1.074234e+07 	
1.20029186e+06 	 5.835880e+01 	 9.939876e+06 	
1.20029289e+06 	 4.502878e+01 	 9.140842e+06 	
1.20029373e+06 	 3.572068e+01 	 8.486707e+06 	
1.20029453e+06 	 2.815604e+01 	 7.869435e+06 	
1.20029520e+06 	 2.274351e+01 	 7.360557e+06 	
1.20029586e+06 	 1.807697e+01 	 6.858211e+06 	
1.20029653e+06 	 1.410083e+01 	 6.364917e+06 	
1.20029720e+06 	 1.075987e+01 	 5.884223e+06 	
1.20029787e+06 	 7.999314e+00 	 5.421038e+06 	
1.20029853e+06 	 5.764923e+00 	 4.981936e+06 	
1.20029910e+06 	 4.251943e+00 	 4.636876e+06 	
1.20029948e+06 	 3.401136e+00 	 4.418966e+06 	
1.20029986e+06 	 2.679347e+00 	 4.215874e+06 	
1.20029999e+06 	 2.459567e+00 	 4.149892e+06 	
1.20030000e+06 	 2.438342e+00 	 4.143402e+06 	
1.20030333e+06 	 1.434500e-01 	 3.156488e+06 	
1.20030667e+06 	 4.364164e-03 	 2.963931e+06 	
1.20031000e+06 	 1.172724e-04 	 2.935148e+06 	
1.20031334e+06 	 3.092306e-06 	 2.930535e+06 	
1.20031667e+06 	 8.130889e-08 	 2.929940e+06 	
1.20032001e+06 	 2.136780e-09 	 2.929815e+06 	
1.20032334e+06 	 5.615073e-11 	 2.929794e+06 	
1.20032668e+06 	 1.475553e-12 	 2.929787e+06 	
1.37691012e+06 	 1.000000e-20 	 2.690879e+06 	
1.57947125e+06 	 1.000000e-20 	 2.478729e+06 	
1.81183172e+06 	 1.000000e-20 	 2.288558e+06 	
2.07837539e+06 	 1.000000e-20 	 2.116847e+06 	
2.38413106e+06 	 1.000000e-20 	 1.960917e+06 	
2.73486730e+06 	 1.000000e-20 	 1.818671e+06 	
3.13720134e+06 	 1.000000e-20 	 1.688430e+06 	
3.59872388e+06 	 1.000000e-20 	 1.568821e+06 	
4.12814230e+06 	 1.000000e-20 	 1.458702e+06 	
4.73544496e+06 	 1.000000e-20 	 1.357110e+06 	
5.43208962e+06 	 1.000000e-20 	 1.263223e+06 	
6.23121964e+06 	 1.000000e-20 	 1.176330e+06 	
7.14791194e+06 	 1.000000e-20 	 1.095810e+06 	
8.19946142e+06 	 1.000000e-20 	 1.021117e+06 	
9.40570732e+06 	 1.000000e-20 	 9.517684e+05 	
1.07894074e+07 	 1.000000e-20 	 8.873320e+05 	
1.23766676e+07 	 1.000000e-20 	 8.274209e+05 	
1.41974341e+07 	 1.000000e-20 	 7.716857e+05 	
1.62860587e+07 	 1.000000e-20 	 7.198105e+05 	
1.86819467e+07 	 1.000000e-20 	 6.715076e+05 	
2.14303005e+07 	 1.000000e-20 	 6.265149e+05 	
2.45829725e+07 	 1.000000e-20 	 5.845924e+05 	
2.81994429e+07 	 1.000000e-20 	 5.455202e+05 	
3.23479425e+07 	 1.000000e-20 	 5.090959e+05 	
3.71067395e+07 	 1.000000e-20 	 4.751332e+05 	
4.25656166e+07 	 1.000000e-20 	 4.434602e+05 	
4.88275645e+07 	 1.000000e-20 	 4.139180e+05 	
5.60107253e+07 	 1.000000e-20 	 3.863597e+05 	
6.42506210e+07 	 1.000000e-20 	 3.606489e+05 	
7.37027111e+07 	 1.000000e-20 	 3.366595e+05 	
8.45453248e+07 	 1.000000e-20 	 3.142743e+05 	
9.69830259e+07 	 1.000000e-20 	 2.933844e+05 	
1.11250472e+08 	 1.000000e-20 	 2.738886e+05 	
1.27616843e+08 	 1.000000e-20 	 2.556929e+05 	
1.46390917e+08 	 1.000000e-20 	 2.387098e+05 	
1.67926897e+08 	 1.000000e-20 	 2.228576e+05 	
1.92631097e+08 	 1.000000e-20 	 2.080606e+05 	
2.20969601e+08 	 1.000000e-20 	 1.942480e+05 	
2.53477062e+08 	 1.000000e-20 	 1.813541e+05 	
2.90766788e+08 	 1.000000e-20 	 1.693173e+05 	
3.33542310e+08 	 1.000000e-20 	 1.580805e+05 	
3.82610660e+08 	 1.000000e-20 	 1.475903e+05 	
4.38897593e+08 	 1.000000e-20 	 1.377970e+05 	
5.03465056e+08 	 1.000000e-20 	 1.286541e+05 	
5.77531220e+08 	 1.000000e-20 	 1.201182e+05 	
6.62493466e+08 	 1.000000e-20 	 1.121491e+05 	
7.59954748e+08 	 1.000000e-20 	 1.047090e+05 	
8.71753835e+08 	 1.000000e-20 	 9.776273e+04 	
1.00000000e+09 	 1.000000e-20 	 9.127747e+04 	
