r (cm)        	 rho (g/cm3) 	 T (K)       		 Linf = 3.099984e+38
1.19996179e+06 	 1.316628e+05 	 1.235906e+09 	
1.20000704e+06 	 1.235503e+05 	 1.215911e+09 	
1.20011837e+06 	 1.053180e+05 	 1.167138e+09 	
1.20021062e+06 	 9.194145e+04 	 1.127204e+09 	
1.20030287e+06 	 7.999527e+04 	 1.087716e+09 	
1.20039511e+06 	 6.935913e+04 	 1.048690e+09 	
1.20048736e+06 	 5.991959e+04 	 1.010142e+09 	
1.20058038e+06 	 5.150363e+04 	 9.717696e+08 	
1.20067341e+06 	 4.409343e+04 	 9.339183e+08 	
1.20074925e+06 	 3.872975e+04 	 9.034599e+08 	
1.20082508e+06 	 3.392168e+04 	 8.733711e+08 	
1.20090092e+06 	 2.962314e+04 	 8.436626e+08 	
1.20097676e+06 	 2.579072e+04 	 8.143457e+08 	
1.20105259e+06 	 2.238367e+04 	 7.854317e+08 	
1.20112745e+06 	 1.940061e+04 	 7.572995e+08 	
1.20120230e+06 	 1.676033e+04 	 7.295830e+08 	
1.20127715e+06 	 1.443072e+04 	 7.022942e+08 	
1.20133905e+06 	 1.271773e+04 	 6.800617e+08 	
1.20140094e+06 	 1.118083e+04 	 6.581370e+08 	
1.20146283e+06 	 9.805157e+03 	 6.365269e+08 	
1.20152472e+06 	 8.576774e+03 	 6.152388e+08 	
1.20158662e+06 	 7.482645e+03 	 5.942799e+08 	
1.20164828e+06 	 6.513987e+03 	 5.737333e+08 	
1.20170995e+06 	 5.655289e+03 	 5.535280e+08 	
1.20177161e+06 	 4.896120e+03 	 5.336715e+08 	
1.20182237e+06 	 4.338969e+03 	 5.175914e+08 	
1.20187314e+06 	 3.837671e+03 	 5.017566e+08 	
1.20192390e+06 	 3.387516e+03 	 4.861714e+08 	
1.20197467e+06 	 2.984098e+03 	 4.708397e+08 	
1.20202543e+06 	 2.623309e+03 	 4.557656e+08 	
1.20207620e+06 	 2.301319e+03 	 4.409531e+08 	
1.20212730e+06 	 2.012776e+03 	 4.263101e+08 	
1.20217841e+06 	 1.756579e+03 	 4.119400e+08 	
1.20222951e+06 	 1.529617e+03 	 3.978467e+08 	
1.20227172e+06 	 1.362128e+03 	 3.864159e+08 	
1.20231394e+06 	 1.211120e+03 	 3.751785e+08 	
1.20235615e+06 	 1.075191e+03 	 3.641365e+08 	
1.20239837e+06 	 9.530343e+02 	 3.532918e+08 	
1.20244058e+06 	 8.434367e+02 	 3.426462e+08 	
1.20248280e+06 	 7.452716e+02 	 3.322015e+08 	
1.20252501e+06 	 6.574951e+02 	 3.219592e+08 	
1.20256870e+06 	 5.765641e+02 	 3.115740e+08 	
1.20261239e+06 	 5.047403e+02 	 3.014089e+08 	
1.20264837e+06 	 4.517868e+02 	 2.932039e+08 	
1.20268435e+06 	 4.039264e+02 	 2.851499e+08 	
1.20272033e+06 	 3.607245e+02 	 2.772475e+08 	
1.20275631e+06 	 3.217778e+02 	 2.694973e+08 	
1.20279229e+06 	 2.867122e+02 	 2.618998e+08 	
1.20282827e+06 	 2.551818e+02 	 2.544555e+08 	
1.20286425e+06 	 2.268667e+02 	 2.471647e+08 	
1.20290023e+06 	 2.014720e+02 	 2.400277e+08 	
1.20293621e+06 	 1.787258e+02 	 2.330445e+08 	
1.20297423e+06 	 1.572887e+02 	 2.258318e+08 	
1.20300569e+06 	 1.413863e+02 	 2.199950e+08 	
1.20303715e+06 	 1.269913e+02 	 2.142757e+08 	
1.20306860e+06 	 1.139733e+02 	 2.086739e+08 	
1.20310006e+06 	 1.022121e+02 	 2.031893e+08 	
1.20313152e+06 	 9.159634e+01 	 1.978217e+08 	
1.20316297e+06 	 8.202363e+01 	 1.925707e+08 	
1.20319443e+06 	 7.339955e+01 	 1.874359e+08 	
1.20322588e+06 	 6.563726e+01 	 1.824169e+08 	
1.20325734e+06 	 5.865702e+01 	 1.775131e+08 	
1.20328880e+06 	 5.238567e+01 	 1.727239e+08 	
1.20332025e+06 	 4.675618e+01 	 1.680488e+08 	
1.20335171e+06 	 4.170723e+01 	 1.634869e+08 	
1.20338082e+06 	 3.750305e+01 	 1.593652e+08 	
1.20340993e+06 	 3.370738e+01 	 1.553392e+08 	
1.20343904e+06 	 3.028289e+01 	 1.514081e+08 	
1.20346816e+06 	 2.719537e+01 	 1.475712e+08 	
1.20349727e+06 	 2.441347e+01 	 1.438276e+08 	
1.20352638e+06 	 2.190853e+01 	 1.401765e+08 	
1.20355549e+06 	 1.965435e+01 	 1.366171e+08 	
1.20358460e+06 	 1.762703e+01 	 1.331482e+08 	
1.20361372e+06 	 1.580477e+01 	 1.297690e+08 	
1.20364283e+06 	 1.416770e+01 	 1.264784e+08 	
1.20367194e+06 	 1.269777e+01 	 1.232754e+08 	
1.20370105e+06 	 1.137856e+01 	 1.201588e+08 	
1.20373016e+06 	 1.019515e+01 	 1.171274e+08 	
1.20375928e+06 	 9.134019e+00 	 1.141802e+08 	
1.20378839e+06 	 8.182917e+00 	 1.113158e+08 	
1.20381750e+06 	 7.330749e+00 	 1.085330e+08 	
1.20384799e+06 	 6.533274e+00 	 1.057041e+08 	
1.20387849e+06 	 5.822959e+00 	 1.029619e+08 	
1.20390898e+06 	 5.190464e+00 	 1.003047e+08 	
1.20393948e+06 	 4.627406e+00 	 9.773106e+07 	
1.20396997e+06 	 4.126272e+00 	 9.523933e+07 	
1.20400047e+06 	 3.680327e+00 	 9.282788e+07 	
1.20403096e+06 	 3.283546e+00 	 9.049507e+07 	
1.20406146e+06 	 2.930542e+00 	 8.823922e+07 	
1.20409195e+06 	 2.616497e+00 	 8.605867e+07 	
1.20412245e+06 	 2.337115e+00 	 8.395170e+07 	
1.20415294e+06 	 2.088558e+00 	 8.191661e+07 	
1.20418344e+06 	 1.867407e+00 	 7.995167e+07 	
1.20421393e+06 	 1.670615e+00 	 7.805517e+07 	
1.20424949e+06 	 1.468320e+00 	 7.592800e+07 	
1.20428505e+06 	 1.291672e+00 	 7.388878e+07 	
1.20432060e+06 	 1.137364e+00 	 7.193478e+07 	
1.20435616e+06 	 1.002511e+00 	 7.006326e+07 	
1.20439171e+06 	 8.846014e-01 	 6.827151e+07 	
1.20442727e+06 	 7.814480e-01 	 6.655685e+07 	
1.20446283e+06 	 6.911468e-01 	 6.491660e+07 	
1.20449838e+06 	 6.120416e-01 	 6.334813e+07 	
1.20453394e+06 	 5.426919e-01 	 6.184882e+07 	
1.20457688e+06 	 4.701803e-01 	 6.012691e+07 	
1.20461981e+06 	 4.081836e-01 	 5.849767e+07 	
1.20466275e+06 	 3.551042e-01 	 5.695674e+07 	
1.20470568e+06 	 3.095929e-01 	 5.549989e+07 	
1.20474862e+06 	 2.705101e-01 	 5.412298e+07 	
1.20479155e+06 	 2.368932e-01 	 5.282201e+07 	
1.20484248e+06 	 2.029933e-01 	 5.137195e+07 	
1.20489341e+06 	 1.745130e-01 	 5.001700e+07 	
1.20494433e+06 	 1.505239e-01 	 4.875117e+07 	
1.20499526e+06 	 1.302639e-01 	 4.756872e+07 	
1.20505475e+06 	 1.104901e-01 	 4.628591e+07 	
1.20511423e+06 	 9.414319e-02 	 4.510122e+07 	
1.20517371e+06 	 8.057662e-02 	 4.400694e+07 	
1.20524021e+06 	 6.806971e-02 	 4.288189e+07 	
1.20530670e+06 	 5.782007e-02 	 4.185151e+07 	
1.20538155e+06 	 4.842672e-02 	 4.079421e+07 	
1.20545640e+06 	 4.082915e-02 	 3.983484e+07 	
1.20554084e+06 	 3.394005e-02 	 3.885756e+07 	
1.20562527e+06 	 2.843625e-02 	 3.797909e+07 	
1.20572023e+06 	 2.351585e-02 	 3.709495e+07 	
1.20581519e+06 	 1.962385e-02 	 3.630702e+07 	
1.20592157e+06 	 1.618732e-02 	 3.552335e+07 	
1.20602794e+06 	 1.348813e-02 	 3.482999e+07 	
1.20614709e+06 	 1.111929e-02 	 3.414504e+07 	
1.20626624e+06 	 9.267751e-03 	 3.354260e+07 	
1.20640028e+06 	 7.642739e-03 	 3.294814e+07 	
1.20653432e+06 	 6.377396e-03 	 3.242790e+07 	
1.20668661e+06 	 5.260141e-03 	 3.191193e+07 	
1.20683891e+06 	 4.393755e-03 	 3.146250e+07 	
1.20701123e+06 	 3.633906e-03 	 3.102020e+07 	
1.20718354e+06 	 3.045261e-03 	 3.063585e+07 	
1.20739999e+06 	 2.479913e-03 	 3.021976e+07 	
1.20761644e+06 	 2.052948e-03 	 2.986365e+07 	
1.20783289e+06 	 1.724307e-03 	 2.955571e+07 	
1.20812150e+06 	 1.393713e-03 	 2.920473e+07 	
1.20841010e+06 	 1.148855e-03 	 2.890752e+07 	
1.20869871e+06 	 9.632523e-04 	 2.865241e+07 	
1.20902071e+06 	 8.052258e-04 	 2.840700e+07 	
1.20934272e+06 	 6.839544e-04 	 2.819446e+07 	
1.20966472e+06 	 5.890853e-04 	 2.800820e+07 	
1.21013641e+06 	 4.837063e-04 	 2.777273e+07 	
1.21039143e+06 	 4.389074e-04 	 2.766038e+07 	
1.21092994e+06 	 3.641750e-04 	 2.745032e+07 	
1.21137084e+06 	 3.177106e-04 	 2.730049e+07 	
1.21212412e+06 	 2.588536e-04 	 2.707943e+07 	
1.21287741e+06 	 2.172167e-04 	 2.689151e+07 	
1.21363070e+06 	 1.866968e-04 	 2.672798e+07 	
1.21471235e+06 	 1.553547e-04 	 2.652436e+07 	
1.21579400e+06 	 1.334114e-04 	 2.634749e+07 	
1.21687566e+06 	 1.174396e-04 	 2.618997e+07 	
1.21795731e+06 	 1.054420e-04 	 2.604686e+07 	
1.21973427e+06 	 9.131567e-05 	 2.583452e+07 	
1.21997345e+06 	 8.979673e-05 	 2.580764e+07 	
1.21999737e+06 	 8.964889e-05 	 2.580497e+07 	
1.21999976e+06 	 8.963415e-05 	 2.580470e+07 	
1.22000000e+06 	 8.963267e-05 	 2.580468e+07 	
1.22050050e+06 	 8.669954e-05 	 2.574959e+07 	
1.22100100e+06 	 8.403890e-05 	 2.569584e+07 	
1.22150150e+06 	 8.161875e-05 	 2.564331e+07 	
1.22200200e+06 	 7.941118e-05 	 2.559188e+07 	
1.22250250e+06 	 7.738988e-05 	 2.554145e+07 	
1.22300300e+06 	 7.553218e-05 	 2.549193e+07 	
1.22350350e+06 	 7.382134e-05 	 2.544325e+07 	
1.22400400e+06 	 7.224148e-05 	 2.539533e+07 	
1.22450450e+06 	 7.077852e-05 	 2.534812e+07 	
1.22500501e+06 	 6.941841e-05 	 2.530154e+07 	
1.22550551e+06 	 6.815210e-05 	 2.525556e+07 	
1.22600601e+06 	 6.697079e-05 	 2.521012e+07 	
1.22650651e+06 	 6.586566e-05 	 2.516520e+07 	
1.22700701e+06 	 6.482931e-05 	 2.512073e+07 	
1.22750751e+06 	 6.385416e-05 	 2.507670e+07 	
1.22800801e+06 	 6.293538e-05 	 2.503307e+07 	
1.22850851e+06 	 6.206818e-05 	 2.498981e+07 	
1.22900901e+06 	 6.124779e-05 	 2.494691e+07 	
1.22950951e+06 	 6.047009e-05 	 2.490433e+07 	
1.23001001e+06 	 5.973050e-05 	 2.486204e+07 	
1.23051051e+06 	 5.902586e-05 	 2.482004e+07 	
1.23101101e+06 	 5.835364e-05 	 2.477831e+07 	
1.23151151e+06 	 5.771134e-05 	 2.473682e+07 	
1.23201201e+06 	 5.709646e-05 	 2.469557e+07 	
1.23251251e+06 	 5.650647e-05 	 2.465454e+07 	
1.23301301e+06 	 5.593956e-05 	 2.461371e+07 	
1.23351351e+06 	 5.539323e-05 	 2.457308e+07 	
1.23401401e+06 	 5.486614e-05 	 2.453263e+07 	
1.23451451e+06 	 5.435700e-05 	 2.449235e+07 	
1.23501502e+06 	 5.386453e-05 	 2.445224e+07 	
1.23551552e+06 	 5.338744e-05 	 2.441229e+07 	
1.23601602e+06 	 5.292446e-05 	 2.437249e+07 	
1.23651652e+06 	 5.247469e-05 	 2.433283e+07 	
1.23701702e+06 	 5.203673e-05 	 2.429330e+07 	
1.23751752e+06 	 5.160969e-05 	 2.425390e+07 	
1.23801802e+06 	 5.119295e-05 	 2.421462e+07 	
1.23851852e+06 	 5.078591e-05 	 2.417546e+07 	
1.23901902e+06 	 5.038793e-05 	 2.413641e+07 	
1.23951952e+06 	 4.999841e-05 	 2.409747e+07 	
1.24002002e+06 	 4.961673e-05 	 2.405863e+07 	
1.24052052e+06 	 4.924228e-05 	 2.401990e+07 	
1.24102102e+06 	 4.887463e-05 	 2.398126e+07 	
1.24152152e+06 	 4.851320e-05 	 2.394272e+07 	
1.24202202e+06 	 4.815749e-05 	 2.390426e+07 	
1.24252252e+06 	 4.780722e-05 	 2.386589e+07 	
1.24302302e+06 	 4.746211e-05 	 2.382761e+07 	
1.24352352e+06 	 4.712190e-05 	 2.378940e+07 	
1.24402402e+06 	 4.678630e-05 	 2.375128e+07 	
1.24452452e+06 	 4.645505e-05 	 2.371324e+07 	
1.24502503e+06 	 4.612786e-05 	 2.367527e+07 	
1.24552553e+06 	 4.580446e-05 	 2.363737e+07 	
1.24602603e+06 	 4.548465e-05 	 2.359955e+07 	
1.24652653e+06 	 4.517043e-05 	 2.356177e+07 	
1.24702703e+06 	 4.485727e-05 	 2.352409e+07 	
1.24752753e+06 	 4.454716e-05 	 2.348647e+07 	
1.24802803e+06 	 4.423992e-05 	 2.344892e+07 	
1.24852853e+06 	 4.393542e-05 	 2.341143e+07 	
1.24902903e+06 	 4.363352e-05 	 2.337401e+07 	
1.24952953e+06 	 4.333411e-05 	 2.333665e+07 	
1.25003003e+06 	 4.303705e-05 	 2.329935e+07 	
1.25053053e+06 	 4.274008e-05 	 2.326214e+07 	
1.25103103e+06 	 4.244729e-05 	 2.322497e+07 	
1.25153153e+06 	 4.215656e-05 	 2.318785e+07 	
1.25203203e+06 	 4.186781e-05 	 2.315079e+07 	
1.25253253e+06 	 4.158095e-05 	 2.311380e+07 	
1.25303303e+06 	 4.129591e-05 	 2.307686e+07 	
1.25353353e+06 	 4.101261e-05 	 2.303997e+07 	
1.25403403e+06 	 4.073101e-05 	 2.300314e+07 	
1.25453453e+06 	 4.045104e-05 	 2.296637e+07 	
1.25503504e+06 	 4.017264e-05 	 2.292966e+07 	
1.25553554e+06 	 3.989360e-05 	 2.289302e+07 	
1.25603604e+06 	 3.961804e-05 	 2.285642e+07 	
1.25653654e+06 	 3.934389e-05 	 2.281986e+07 	
1.25703704e+06 	 3.907111e-05 	 2.278337e+07 	
1.25753754e+06 	 3.879967e-05 	 2.274692e+07 	
1.25803804e+06 	 3.852954e-05 	 2.271053e+07 	
1.25853854e+06 	 3.826067e-05 	 2.267420e+07 	
1.25903904e+06 	 3.799303e-05 	 2.263791e+07 	
1.25953954e+06 	 3.772463e-05 	 2.260170e+07 	
1.26004004e+06 	 3.745921e-05 	 2.256552e+07 	
1.26054054e+06 	 3.719494e-05 	 2.252939e+07 	
1.26104104e+06 	 3.693177e-05 	 2.249332e+07 	
1.26154154e+06 	 3.666968e-05 	 2.245729e+07 	
1.26204204e+06 	 3.640865e-05 	 2.242132e+07 	
1.26254254e+06 	 3.614866e-05 	 2.238540e+07 	
1.26304304e+06 	 3.588969e-05 	 2.234953e+07 	
1.26354354e+06 	 3.563171e-05 	 2.231371e+07 	
1.26404404e+06 	 3.537660e-05 	 2.227792e+07 	
1.26454454e+06 	 3.512070e-05 	 2.224220e+07 	
1.26504505e+06 	 3.486574e-05 	 2.220653e+07 	
1.26554555e+06 	 3.461172e-05 	 2.217091e+07 	
1.26604605e+06 	 3.435862e-05 	 2.213534e+07 	
1.26654655e+06 	 3.410642e-05 	 2.209982e+07 	
1.26704705e+06 	 3.385511e-05 	 2.206435e+07 	
1.26754755e+06 	 3.360467e-05 	 2.202893e+07 	
1.26804805e+06 	 3.335678e-05 	 2.199353e+07 	
1.26854855e+06 	 3.310817e-05 	 2.195821e+07 	
1.26904905e+06 	 3.286040e-05 	 2.192294e+07 	
1.26954955e+06 	 3.261346e-05 	 2.188771e+07 	
1.27005005e+06 	 3.236734e-05 	 2.185254e+07 	
1.27055055e+06 	 3.212203e-05 	 2.181741e+07 	
1.27105105e+06 	 3.187751e-05 	 2.178234e+07 	
1.27155155e+06 	 3.163378e-05 	 2.174731e+07 	
1.27205205e+06 	 3.139082e-05 	 2.171233e+07 	
1.27255255e+06 	 3.115025e-05 	 2.167738e+07 	
1.27305305e+06 	 3.090893e-05 	 2.164250e+07 	
1.27355355e+06 	 3.066836e-05 	 2.160767e+07 	
1.27405405e+06 	 3.042854e-05 	 2.157288e+07 	
1.27455455e+06 	 3.018944e-05 	 2.153815e+07 	
1.27505506e+06 	 2.995107e-05 	 2.150346e+07 	
1.27555556e+06 	 2.971342e-05 	 2.146883e+07 	
1.27605606e+06 	 2.947647e-05 	 2.143424e+07 	
1.27655656e+06 	 2.924022e-05 	 2.139970e+07 	
1.27705706e+06 	 2.900622e-05 	 2.136518e+07 	
1.27755756e+06 	 2.877145e-05 	 2.133074e+07 	
1.27805806e+06 	 2.853737e-05 	 2.129635e+07 	
1.27855856e+06 	 2.830395e-05 	 2.126200e+07 	
1.27905906e+06 	 2.807120e-05 	 2.122770e+07 	
1.27955956e+06 	 2.783911e-05 	 2.119345e+07 	
1.28006006e+06 	 2.760767e-05 	 2.115925e+07 	
1.28056056e+06 	 2.737687e-05 	 2.112510e+07 	
1.28106106e+06 	 2.714532e-05 	 2.109102e+07 	
1.28156156e+06 	 2.691567e-05 	 2.105697e+07 	
1.28206206e+06 	 2.668664e-05 	 2.102297e+07 	
1.28256256e+06 	 2.645821e-05 	 2.098901e+07 	
1.28306306e+06 	 2.623038e-05 	 2.095511e+07 	
1.28356356e+06 	 2.600314e-05 	 2.092125e+07 	
1.28406406e+06 	 2.577648e-05 	 2.088745e+07 	
1.28456456e+06 	 2.555038e-05 	 2.085369e+07 	
1.28506507e+06 	 2.532486e-05 	 2.081998e+07 	
1.28556557e+06 	 2.509857e-05 	 2.078635e+07 	
1.28606607e+06 	 2.487405e-05 	 2.075274e+07 	
1.28656657e+06 	 2.465007e-05 	 2.071918e+07 	
1.28706707e+06 	 2.442661e-05 	 2.068567e+07 	
1.28756757e+06 	 2.420367e-05 	 2.065221e+07 	
1.28806807e+06 	 2.398124e-05 	 2.061881e+07 	
1.28856857e+06 	 2.375931e-05 	 2.058545e+07 	
1.28906907e+06 	 2.353787e-05 	 2.055214e+07 	
1.28956957e+06 	 2.331808e-05 	 2.051886e+07 	
1.29007007e+06 	 2.309769e-05 	 2.048565e+07 	
1.29057057e+06 	 2.287776e-05 	 2.045249e+07 	
1.29107107e+06 	 2.265830e-05 	 2.041939e+07 	
1.29157157e+06 	 2.243930e-05 	 2.038633e+07 	
1.29207207e+06 	 2.222074e-05 	 2.035332e+07 	
1.29257257e+06 	 2.200262e-05 	 2.032037e+07 	
1.29307307e+06 	 2.178493e-05 	 2.028747e+07 	
1.29357357e+06 	 2.156765e-05 	 2.025461e+07 	
1.29407407e+06 	 2.134969e-05 	 2.022184e+07 	
1.29457457e+06 	 2.113315e-05 	 2.018909e+07 	
1.29507508e+06 	 2.091701e-05 	 2.015640e+07 	
1.29557558e+06 	 2.070124e-05 	 2.012376e+07 	
1.29607608e+06 	 2.048584e-05 	 2.009117e+07 	
1.29657658e+06 	 2.027080e-05 	 2.005864e+07 	
1.29707708e+06 	 2.005611e-05 	 2.002616e+07 	
1.29757758e+06 	 1.984176e-05 	 1.999373e+07 	
1.29807808e+06 	 1.962774e-05 	 1.996136e+07 	
1.29857858e+06 	 1.941508e-05 	 1.992902e+07 	
1.29907908e+06 	 1.920177e-05 	 1.989675e+07 	
1.29957958e+06 	 1.898877e-05 	 1.986455e+07 	
1.30008008e+06 	 1.877606e-05 	 1.983239e+07 	
1.30058058e+06 	 1.856364e-05 	 1.980030e+07 	
1.30108108e+06 	 1.835150e-05 	 1.976826e+07 	
1.30158158e+06 	 1.813963e-05 	 1.973627e+07 	
1.30208208e+06 	 1.792801e-05 	 1.970435e+07 	
1.30258258e+06 	 1.771574e-05 	 1.967250e+07 	
1.30308308e+06 	 1.750455e-05 	 1.964069e+07 	
1.30358358e+06 	 1.729358e-05 	 1.960895e+07 	
1.30408408e+06 	 1.708282e-05 	 1.957726e+07 	
1.30458458e+06 	 1.687227e-05 	 1.954563e+07 	
1.30508509e+06 	 1.666191e-05 	 1.951407e+07 	
1.30558559e+06 	 1.645173e-05 	 1.948256e+07 	
1.30608609e+06 	 1.624173e-05 	 1.945112e+07 	
1.30658659e+06 	 1.603189e-05 	 1.941975e+07 	
1.30708709e+06 	 1.582136e-05 	 1.938846e+07 	
1.30758759e+06 	 1.561176e-05 	 1.935721e+07 	
1.30808809e+06 	 1.540229e-05 	 1.932603e+07 	
1.30858859e+06 	 1.519293e-05 	 1.929492e+07 	
1.30908909e+06 	 1.498369e-05 	 1.926388e+07 	
1.30958959e+06 	 1.477454e-05 	 1.923290e+07 	
1.31009009e+06 	 1.456549e-05 	 1.920200e+07 	
1.31059059e+06 	 1.435652e-05 	 1.917117e+07 	
1.31109109e+06 	 1.414833e-05 	 1.914039e+07 	
1.31159159e+06 	 1.393955e-05 	 1.910970e+07 	
1.31209209e+06 	 1.373082e-05 	 1.907909e+07 	
1.31259259e+06 	 1.352215e-05 	 1.904856e+07 	
1.31309309e+06 	 1.331353e-05 	 1.901811e+07 	
1.31359359e+06 	 1.310494e-05 	 1.898773e+07 	
1.31409409e+06 	 1.289639e-05 	 1.895744e+07 	
1.31459459e+06 	 1.268787e-05 	 1.892723e+07 	
1.31509510e+06 	 1.247937e-05 	 1.889710e+07 	
1.31559560e+06 	 1.227154e-05 	 1.886704e+07 	
1.31609610e+06 	 1.206313e-05 	 1.883709e+07 	
1.31659660e+06 	 1.185474e-05 	 1.880723e+07 	
1.31709710e+06 	 1.164637e-05 	 1.877746e+07 	
1.31759760e+06 	 1.143802e-05 	 1.874779e+07 	
1.31809810e+06 	 1.122970e-05 	 1.871822e+07 	
1.31859860e+06 	 1.102141e-05 	 1.868874e+07 	
1.31909910e+06 	 1.081315e-05 	 1.865937e+07 	
1.31959960e+06 	 1.060440e-05 	 1.863013e+07 	
1.32010010e+06 	 1.039620e-05 	 1.860097e+07 	
1.32060060e+06 	 1.018807e-05 	 1.857193e+07 	
1.32110110e+06 	 9.980013e-06 	 1.854300e+07 	
1.32160160e+06 	 9.772049e-06 	 1.851419e+07 	
1.32210210e+06 	 9.564196e-06 	 1.848550e+07 	
1.32260260e+06 	 9.356477e-06 	 1.845693e+07 	
1.32310310e+06 	 9.148914e-06 	 1.842849e+07 	
1.32360360e+06 	 8.941537e-06 	 1.840018e+07 	
1.32410410e+06 	 8.734843e-06 	 1.837199e+07 	
1.32460460e+06 	 8.527962e-06 	 1.834396e+07 	
1.32510511e+06 	 8.321372e-06 	 1.831607e+07 	
1.32560561e+06 	 8.115115e-06 	 1.828833e+07 	
1.32610611e+06 	 7.909239e-06 	 1.826075e+07 	
1.32660661e+06 	 7.703795e-06 	 1.823332e+07 	
1.32710711e+06 	 7.498838e-06 	 1.820606e+07 	
1.32760761e+06 	 7.294431e-06 	 1.817897e+07 	
1.32810811e+06 	 7.090270e-06 	 1.815207e+07 	
1.32860861e+06 	 6.887143e-06 	 1.812533e+07 	
1.32910911e+06 	 6.684778e-06 	 1.809878e+07 	
1.32960961e+06 	 6.483257e-06 	 1.807242e+07 	
1.33011011e+06 	 6.282670e-06 	 1.804626e+07 	
1.33061061e+06 	 6.083110e-06 	 1.802030e+07 	
1.33111111e+06 	 5.884678e-06 	 1.799456e+07 	
1.33161161e+06 	 5.687480e-06 	 1.796903e+07 	
1.33211211e+06 	 5.491352e-06 	 1.794375e+07 	
1.33261261e+06 	 5.296955e-06 	 1.791868e+07 	
1.33311311e+06 	 5.104148e-06 	 1.789385e+07 	
1.33361361e+06 	 4.913063e-06 	 1.786927e+07 	
1.33411411e+06 	 4.723838e-06 	 1.784495e+07 	
1.33461461e+06 	 4.536613e-06 	 1.782089e+07 	
1.33511512e+06 	 4.351539e-06 	 1.779709e+07 	
1.33561562e+06 	 4.168766e-06 	 1.777358e+07 	
1.33611612e+06 	 3.988452e-06 	 1.775035e+07 	
1.33661662e+06 	 3.810964e-06 	 1.772740e+07 	
1.33711712e+06 	 3.636063e-06 	 1.770477e+07 	
1.33761762e+06 	 3.464114e-06 	 1.768245e+07 	
1.33811812e+06 	 3.295283e-06 	 1.766045e+07 	
1.33861862e+06 	 3.129741e-06 	 1.763878e+07 	
1.33911912e+06 	 2.967657e-06 	 1.761744e+07 	
1.33961962e+06 	 2.809197e-06 	 1.759645e+07 	
1.34012012e+06 	 2.654526e-06 	 1.757581e+07 	
1.34062062e+06 	 2.503939e-06 	 1.755551e+07 	
1.34112112e+06 	 2.357328e-06 	 1.753559e+07 	
1.34162162e+06 	 2.214972e-06 	 1.751605e+07 	
1.34212212e+06 	 2.077012e-06 	 1.749690e+07 	
1.34262262e+06 	 1.943580e-06 	 1.747813e+07 	
1.34312312e+06 	 1.814797e-06 	 1.745975e+07 	
1.34362362e+06 	 1.690772e-06 	 1.744177e+07 	
1.34412412e+06 	 1.571599e-06 	 1.742420e+07 	
1.34462462e+06 	 1.457438e-06 	 1.740702e+07 	
1.34512513e+06 	 1.348197e-06 	 1.739027e+07 	
1.34562563e+06 	 1.244000e-06 	 1.737393e+07 	
1.34612613e+06 	 1.144878e-06 	 1.735802e+07 	
1.34662663e+06 	 1.050841e-06 	 1.734254e+07 	
1.34712713e+06 	 9.618789e-07 	 1.732747e+07 	
1.34762763e+06 	 8.779648e-07 	 1.731284e+07 	
1.34812813e+06 	 7.990104e-07 	 1.729865e+07 	
1.34862863e+06 	 7.250287e-07 	 1.728486e+07 	
1.34912913e+06 	 6.558931e-07 	 1.727150e+07 	
1.34962963e+06 	 5.914987e-07 	 1.725856e+07 	
1.35013013e+06 	 5.317230e-07 	 1.724604e+07 	
1.35063063e+06 	 4.764272e-07 	 1.723393e+07 	
1.35113113e+06 	 4.254574e-07 	 1.722224e+07 	
1.35163163e+06 	 3.786462e-07 	 1.721094e+07 	
1.35213213e+06 	 3.357957e-07 	 1.720008e+07 	
1.35263263e+06 	 2.967542e-07 	 1.718957e+07 	
