r (cm)        	 rho (g/cm3) 	 T (K)       		 Linf = 3.099976e+38
1.19999995e+06 	 1.323287e+05 	 1.236808e+09 	
1.20004829e+06 	 1.236313e+05 	 1.215437e+09 	
1.20015946e+06 	 1.053950e+05 	 1.166723e+09 	
1.20025158e+06 	 9.201253e+04 	 1.126828e+09 	
1.20034370e+06 	 8.006082e+04 	 1.087379e+09 	
1.20043582e+06 	 6.941948e+04 	 1.048391e+09 	
1.20052795e+06 	 5.997505e+04 	 1.009880e+09 	
1.20062086e+06 	 5.155372e+04 	 9.715393e+08 	
1.20071377e+06 	 4.413860e+04 	 9.337194e+08 	
1.20078952e+06 	 3.877038e+04 	 9.032810e+08 	
1.20086528e+06 	 3.395818e+04 	 8.732116e+08 	
1.20094103e+06 	 2.965589e+04 	 8.435219e+08 	
1.20101679e+06 	 2.582007e+04 	 8.142233e+08 	
1.20109255e+06 	 2.240993e+04 	 7.853270e+08 	
1.20116733e+06 	 1.942386e+04 	 7.572092e+08 	
1.20124210e+06 	 1.678087e+04 	 7.295066e+08 	
1.20131688e+06 	 1.444883e+04 	 7.022311e+08 	
1.20137872e+06 	 1.273388e+04 	 6.800071e+08 	
1.20144056e+06 	 1.119520e+04 	 6.580905e+08 	
1.20150240e+06 	 9.817924e+03 	 6.364883e+08 	
1.20156423e+06 	 8.588098e+03 	 6.152077e+08 	
1.20162607e+06 	 7.492671e+03 	 5.942560e+08 	
1.20168768e+06 	 6.522803e+03 	 5.737152e+08 	
1.20174930e+06 	 5.663025e+03 	 5.535154e+08 	
1.20181091e+06 	 4.902894e+03 	 5.336640e+08 	
1.20186163e+06 	 4.345000e+03 	 5.175869e+08 	
1.20191236e+06 	 3.843031e+03 	 5.017551e+08 	
1.20196309e+06 	 3.392271e+03 	 4.861726e+08 	
1.20201381e+06 	 2.988310e+03 	 4.708435e+08 	
1.20206454e+06 	 2.627033e+03 	 4.557718e+08 	
1.20211526e+06 	 2.304606e+03 	 4.409614e+08 	
1.20216633e+06 	 2.015660e+03 	 4.263201e+08 	
1.20221739e+06 	 1.759107e+03 	 4.119515e+08 	
1.20226846e+06 	 1.531827e+03 	 3.978595e+08 	
1.20231064e+06 	 1.364098e+03 	 3.864294e+08 	
1.20235282e+06 	 1.212874e+03 	 3.751927e+08 	
1.20239501e+06 	 1.076750e+03 	 3.641512e+08 	
1.20243719e+06 	 9.544175e+02 	 3.533070e+08 	
1.20247938e+06 	 8.446621e+02 	 3.426618e+08 	
1.20252156e+06 	 7.463554e+02 	 3.322173e+08 	
1.20256374e+06 	 6.584520e+02 	 3.219752e+08 	
1.20260740e+06 	 5.774031e+02 	 3.115900e+08 	
1.20265106e+06 	 5.054746e+02 	 3.014248e+08 	
1.20268701e+06 	 4.524440e+02 	 2.932198e+08 	
1.20272297e+06 	 4.045139e+02 	 2.851656e+08 	
1.20275892e+06 	 3.612490e+02 	 2.772630e+08 	
1.20279488e+06 	 3.222453e+02 	 2.695127e+08 	
1.20283083e+06 	 2.871284e+02 	 2.619149e+08 	
1.20286678e+06 	 2.555517e+02 	 2.544703e+08 	
1.20290274e+06 	 2.271951e+02 	 2.471792e+08 	
1.20293869e+06 	 2.017630e+02 	 2.400417e+08 	
1.20297464e+06 	 1.789833e+02 	 2.330581e+08 	
1.20301264e+06 	 1.575147e+02 	 2.258449e+08 	
1.20304407e+06 	 1.415896e+02 	 2.200078e+08 	
1.20307550e+06 	 1.271738e+02 	 2.142884e+08 	
1.20310694e+06 	 1.141371e+02 	 2.086863e+08 	
1.20313837e+06 	 1.023589e+02 	 2.032014e+08 	
1.20316980e+06 	 9.172775e+01 	 1.978334e+08 	
1.20320123e+06 	 8.214115e+01 	 1.925820e+08 	
1.20323267e+06 	 7.350453e+01 	 1.874469e+08 	
1.20326410e+06 	 6.573093e+01 	 1.824274e+08 	
1.20329553e+06 	 5.874051e+01 	 1.775232e+08 	
1.20332696e+06 	 5.246001e+01 	 1.727336e+08 	
1.20335839e+06 	 4.682230e+01 	 1.680579e+08 	
1.20338983e+06 	 4.176597e+01 	 1.634955e+08 	
1.20341891e+06 	 3.755611e+01 	 1.593739e+08 	
1.20344800e+06 	 3.375528e+01 	 1.553478e+08 	
1.20347708e+06 	 3.032609e+01 	 1.514167e+08 	
1.20350617e+06 	 2.723430e+01 	 1.475797e+08 	
1.20353526e+06 	 2.444852e+01 	 1.438360e+08 	
1.20356434e+06 	 2.194007e+01 	 1.401848e+08 	
1.20359343e+06 	 1.968271e+01 	 1.366252e+08 	
1.20362251e+06 	 1.765251e+01 	 1.331562e+08 	
1.20365160e+06 	 1.582764e+01 	 1.297768e+08 	
1.20368069e+06 	 1.418822e+01 	 1.264860e+08 	
1.20370977e+06 	 1.271617e+01 	 1.232827e+08 	
1.20373886e+06 	 1.139504e+01 	 1.201658e+08 	
1.20376794e+06 	 1.020990e+01 	 1.171342e+08 	
1.20379703e+06 	 9.147220e+00 	 1.141866e+08 	
1.20382612e+06 	 8.194723e+00 	 1.113219e+08 	
1.20385520e+06 	 7.341301e+00 	 1.085389e+08 	
1.20388567e+06 	 6.542787e+00 	 1.057102e+08 	
1.20391613e+06 	 5.831529e+00 	 1.029681e+08 	
1.20394659e+06 	 5.198180e+00 	 1.003110e+08 	
1.20397705e+06 	 4.634350e+00 	 9.773746e+07 	
1.20400751e+06 	 4.132517e+00 	 9.524577e+07 	
1.20403798e+06 	 3.685942e+00 	 9.283434e+07 	
1.20406844e+06 	 3.288593e+00 	 9.050152e+07 	
1.20409890e+06 	 2.935076e+00 	 8.824565e+07 	
1.20412936e+06 	 2.620570e+00 	 8.606504e+07 	
1.20415983e+06 	 2.340773e+00 	 8.395801e+07 	
1.20419029e+06 	 2.091842e+00 	 8.192283e+07 	
1.20422075e+06 	 1.870356e+00 	 7.995780e+07 	
1.20425121e+06 	 1.673263e+00 	 7.806119e+07 	
1.20428672e+06 	 1.470701e+00 	 7.593436e+07 	
1.20432223e+06 	 1.293811e+00 	 7.389543e+07 	
1.20435774e+06 	 1.139284e+00 	 7.194167e+07 	
1.20439325e+06 	 1.004235e+00 	 7.007035e+07 	
1.20442876e+06 	 8.861490e-01 	 6.827876e+07 	
1.20446427e+06 	 7.828370e-01 	 6.656421e+07 	
1.20449979e+06 	 6.923937e-01 	 6.492405e+07 	
1.20453530e+06 	 6.131611e-01 	 6.335563e+07 	
1.20457081e+06 	 5.436973e-01 	 6.185635e+07 	
1.20461368e+06 	 4.710783e-01 	 6.013480e+07 	
1.20465655e+06 	 4.089855e-01 	 5.850584e+07 	
1.20469942e+06 	 3.558201e-01 	 5.696514e+07 	
1.20474229e+06 	 3.102321e-01 	 5.550845e+07 	
1.20478515e+06 	 2.710810e-01 	 5.413166e+07 	
1.20482802e+06 	 2.374034e-01 	 5.283075e+07 	
1.20487887e+06 	 2.034453e-01 	 5.138096e+07 	
1.20492971e+06 	 1.749135e-01 	 5.002619e+07 	
1.20498055e+06 	 1.508791e-01 	 4.876047e+07 	
1.20503139e+06 	 1.305790e-01 	 4.757807e+07 	
1.20509077e+06 	 1.107668e-01 	 4.629541e+07 	
1.20515014e+06 	 9.438639e-02 	 4.511080e+07 	
1.20520952e+06 	 8.079064e-02 	 4.401652e+07 	
1.20527589e+06 	 6.825632e-02 	 4.289147e+07 	
1.20534226e+06 	 5.798307e-02 	 4.186101e+07 	
1.20541696e+06 	 4.856735e-02 	 4.080360e+07 	
1.20549167e+06 	 4.095082e-02 	 3.984405e+07 	
1.20557595e+06 	 3.404365e-02 	 3.886649e+07 	
1.20566022e+06 	 2.852486e-02 	 3.798771e+07 	
1.20575501e+06 	 2.359031e-02 	 3.710313e+07 	
1.20584979e+06 	 1.968683e-02 	 3.631476e+07 	
1.20595598e+06 	 1.623975e-02 	 3.553056e+07 	
1.20606217e+06 	 1.353213e-02 	 3.483668e+07 	
1.20618111e+06 	 1.115574e-02 	 3.415117e+07 	
1.20630005e+06 	 9.298219e-03 	 3.354821e+07 	
1.20643384e+06 	 7.667932e-03 	 3.295321e+07 	
1.20656764e+06 	 6.398441e-03 	 3.243249e+07 	
1.20671966e+06 	 5.277535e-03 	 3.191602e+07 	
1.20687168e+06 	 4.408289e-03 	 3.146615e+07 	
1.20704368e+06 	 3.645948e-03 	 3.102341e+07 	
1.20721567e+06 	 3.055352e-03 	 3.063867e+07 	
1.20743168e+06 	 2.488167e-03 	 3.022219e+07 	
1.20764770e+06 	 2.059791e-03 	 2.986573e+07 	
1.20786372e+06 	 1.730048e-03 	 2.955747e+07 	
1.20815170e+06 	 1.398381e-03 	 2.920618e+07 	
1.20843969e+06 	 1.152707e-03 	 2.890868e+07 	
1.20872767e+06 	 9.664747e-04 	 2.865332e+07 	
1.20904897e+06 	 8.079081e-04 	 2.840768e+07 	
1.20937027e+06 	 6.862159e-04 	 2.819494e+07 	
1.20969156e+06 	 5.910138e-04 	 2.800851e+07 	
1.21016215e+06 	 4.852742e-04 	 2.777286e+07 	
1.21041667e+06 	 4.403046e-04 	 2.766038e+07 	
1.21095387e+06 	 3.653165e-04 	 2.745018e+07 	
1.21139377e+06 	 3.186847e-04 	 2.730025e+07 	
1.21214507e+06 	 2.596320e-04 	 2.707913e+07 	
1.21289637e+06 	 2.178511e-04 	 2.689116e+07 	
1.21364766e+06 	 1.872225e-04 	 2.672760e+07 	
1.21472642e+06 	 1.557667e-04 	 2.652399e+07 	
1.21580519e+06 	 1.337419e-04 	 2.634716e+07 	
1.21688395e+06 	 1.177097e-04 	 2.618969e+07 	
1.21796271e+06 	 1.056661e-04 	 2.604666e+07 	
1.21973438e+06 	 9.148864e-05 	 2.583454e+07 	
1.21997346e+06 	 8.996029e-05 	 2.580763e+07 	
1.21999737e+06 	 8.981154e-05 	 2.580495e+07 	
1.21999976e+06 	 8.979671e-05 	 2.580469e+07 	
1.22000000e+06 	 8.979523e-05 	 2.580466e+07 	
1.22025013e+06 	 8.828244e-05 	 2.577691e+07 	
1.22050025e+06 	 8.684465e-05 	 2.574951e+07 	
1.22075038e+06 	 8.547464e-05 	 2.572245e+07 	
1.22100050e+06 	 8.416874e-05 	 2.569571e+07 	
1.22125063e+06 	 8.292343e-05 	 2.566927e+07 	
1.22150075e+06 	 8.173520e-05 	 2.564312e+07 	
1.22175088e+06 	 8.060051e-05 	 2.561725e+07 	
1.22200100e+06 	 7.951584e-05 	 2.559165e+07 	
1.22225113e+06 	 7.847806e-05 	 2.556630e+07 	
1.22250125e+06 	 7.748409e-05 	 2.554119e+07 	
1.22275138e+06 	 7.653111e-05 	 2.551630e+07 	
1.22300150e+06 	 7.561712e-05 	 2.549164e+07 	
1.22325163e+06 	 7.474011e-05 	 2.546718e+07 	
1.22350175e+06 	 7.389806e-05 	 2.544293e+07 	
1.22375188e+06 	 7.308897e-05 	 2.541887e+07 	
1.22400200e+06 	 7.231084e-05 	 2.539499e+07 	
1.22425213e+06 	 7.156251e-05 	 2.537129e+07 	
1.22450225e+06 	 7.084130e-05 	 2.534775e+07 	
1.22475238e+06 	 7.014593e-05 	 2.532438e+07 	
1.22500250e+06 	 6.947528e-05 	 2.530116e+07 	
1.22525263e+06 	 6.882824e-05 	 2.527809e+07 	
1.22550275e+06 	 6.820370e-05 	 2.525516e+07 	
1.22575288e+06 	 6.760053e-05 	 2.523237e+07 	
1.22600300e+06 	 6.701763e-05 	 2.520972e+07 	
1.22625313e+06 	 6.645390e-05 	 2.518719e+07 	
1.22650325e+06 	 6.590820e-05 	 2.516478e+07 	
1.22675338e+06 	 6.538007e-05 	 2.514249e+07 	
1.22700350e+06 	 6.486796e-05 	 2.512031e+07 	
1.22725363e+06 	 6.437123e-05 	 2.509824e+07 	
1.22750375e+06 	 6.388929e-05 	 2.507627e+07 	
1.22775388e+06 	 6.342152e-05 	 2.505441e+07 	
1.22800400e+06 	 6.296733e-05 	 2.503264e+07 	
1.22825413e+06 	 6.252612e-05 	 2.501096e+07 	
1.22850425e+06 	 6.209727e-05 	 2.498938e+07 	
1.22875438e+06 	 6.168019e-05 	 2.496789e+07 	
1.22900450e+06 	 6.127427e-05 	 2.494648e+07 	
1.22925463e+06 	 6.087907e-05 	 2.492515e+07 	
1.22950475e+06 	 6.049420e-05 	 2.490390e+07 	
1.22975488e+06 	 6.011875e-05 	 2.488272e+07 	
1.23000500e+06 	 5.975242e-05 	 2.486162e+07 	
1.23025513e+06 	 5.939487e-05 	 2.484058e+07 	
1.23050525e+06 	 5.904580e-05 	 2.481962e+07 	
1.23075538e+06 	 5.870488e-05 	 2.479872e+07 	
1.23100550e+06 	 5.837180e-05 	 2.477789e+07 	
1.23125563e+06 	 5.804624e-05 	 2.475712e+07 	
1.23150575e+06 	 5.772789e-05 	 2.473641e+07 	
1.23175588e+06 	 5.741643e-05 	 2.471576e+07 	
1.23200600e+06 	 5.711153e-05 	 2.469516e+07 	
1.23225613e+06 	 5.681289e-05 	 2.467463e+07 	
1.23250625e+06 	 5.652018e-05 	 2.465414e+07 	
1.23275638e+06 	 5.623345e-05 	 2.463371e+07 	
1.23300650e+06 	 5.595205e-05 	 2.461332e+07 	
1.23325663e+06 	 5.567581e-05 	 2.459299e+07 	
1.23350675e+06 	 5.540457e-05 	 2.457270e+07 	
1.23375688e+06 	 5.513818e-05 	 2.455246e+07 	
1.23400700e+06 	 5.487646e-05 	 2.453226e+07 	
1.23425713e+06 	 5.461925e-05 	 2.451211e+07 	
1.23450725e+06 	 5.436639e-05 	 2.449200e+07 	
1.23475738e+06 	 5.411773e-05 	 2.447193e+07 	
1.23500750e+06 	 5.387309e-05 	 2.445190e+07 	
1.23525763e+06 	 5.363231e-05 	 2.443191e+07 	
1.23550775e+06 	 5.339524e-05 	 2.441196e+07 	
1.23575788e+06 	 5.316170e-05 	 2.439204e+07 	
1.23600800e+06 	 5.293155e-05 	 2.437216e+07 	
1.23625813e+06 	 5.270476e-05 	 2.435232e+07 	
1.23650825e+06 	 5.248116e-05 	 2.433252e+07 	
1.23675838e+06 	 5.226046e-05 	 2.431274e+07 	
1.23700850e+06 	 5.204259e-05 	 2.429300e+07 	
1.23725863e+06 	 5.182747e-05 	 2.427329e+07 	
1.23750875e+06 	 5.161501e-05 	 2.425361e+07 	
1.23775888e+06 	 5.140515e-05 	 2.423396e+07 	
1.23800900e+06 	 5.119780e-05 	 2.421435e+07 	
1.23825913e+06 	 5.099289e-05 	 2.419476e+07 	
1.23850925e+06 	 5.079034e-05 	 2.417520e+07 	
1.23875938e+06 	 5.059006e-05 	 2.415567e+07 	
1.23900950e+06 	 5.039199e-05 	 2.413616e+07 	
1.23925963e+06 	 5.019604e-05 	 2.411669e+07 	
1.23950975e+06 	 5.000213e-05 	 2.409724e+07 	
1.23975988e+06 	 4.981019e-05 	 2.407782e+07 	
1.24001001e+06 	 4.962015e-05 	 2.405842e+07 	
1.24026013e+06 	 4.943191e-05 	 2.403905e+07 	
1.24051026e+06 	 4.924541e-05 	 2.401970e+07 	
1.24076038e+06 	 4.906061e-05 	 2.400038e+07 	
1.24101051e+06 	 4.887752e-05 	 2.398108e+07 	
1.24126063e+06 	 4.869595e-05 	 2.396180e+07 	
1.24151076e+06 	 4.851585e-05 	 2.394255e+07 	
1.24176088e+06 	 4.833719e-05 	 2.392332e+07 	
1.24201101e+06 	 4.815993e-05 	 2.390411e+07 	
1.24226113e+06 	 4.798404e-05 	 2.388492e+07 	
1.24251126e+06 	 4.780948e-05 	 2.386575e+07 	
1.24276138e+06 	 4.763622e-05 	 2.384661e+07 	
1.24301151e+06 	 4.746423e-05 	 2.382748e+07 	
1.24326163e+06 	 4.729346e-05 	 2.380838e+07 	
1.24351176e+06 	 4.712389e-05 	 2.378930e+07 	
1.24376188e+06 	 4.695548e-05 	 2.377023e+07 	
1.24401201e+06 	 4.678819e-05 	 2.375119e+07 	
1.24426213e+06 	 4.662199e-05 	 2.373217e+07 	
1.24451226e+06 	 4.645684e-05 	 2.371316e+07 	
1.24476238e+06 	 4.629272e-05 	 2.369418e+07 	
1.24501251e+06 	 4.612958e-05 	 2.367521e+07 	
1.24526263e+06 	 4.596738e-05 	 2.365626e+07 	
1.24551276e+06 	 4.580611e-05 	 2.363733e+07 	
1.24576288e+06 	 4.564571e-05 	 2.361842e+07 	
1.24601301e+06 	 4.548627e-05 	 2.359953e+07 	
1.24626313e+06 	 4.532765e-05 	 2.358065e+07 	
1.24651326e+06 	 4.517208e-05 	 2.356177e+07 	
1.24676338e+06 	 4.501510e-05 	 2.354292e+07 	
1.24701351e+06 	 4.485889e-05 	 2.352410e+07 	
1.24726363e+06 	 4.470345e-05 	 2.350529e+07 	
1.24751376e+06 	 4.454875e-05 	 2.348650e+07 	
1.24776388e+06 	 4.439477e-05 	 2.346772e+07 	
1.24801401e+06 	 4.424149e-05 	 2.344896e+07 	
1.24826413e+06 	 4.408890e-05 	 2.343022e+07 	
1.24851426e+06 	 4.393699e-05 	 2.341149e+07 	
1.24876438e+06 	 4.378572e-05 	 2.339278e+07 	
1.24901451e+06 	 4.363509e-05 	 2.337409e+07 	
1.24926463e+06 	 4.348508e-05 	 2.335541e+07 	
1.24951476e+06 	 4.333568e-05 	 2.333674e+07 	
1.24976488e+06 	 4.318688e-05 	 2.331809e+07 	
1.25001501e+06 	 4.303865e-05 	 2.329946e+07 	
1.25026513e+06 	 4.288884e-05 	 2.328087e+07 	
1.25051526e+06 	 4.274166e-05 	 2.326226e+07 	
1.25076538e+06 	 4.259502e-05 	 2.324368e+07 	
1.25101551e+06 	 4.244890e-05 	 2.322511e+07 	
1.25126563e+06 	 4.230330e-05 	 2.320655e+07 	
1.25151576e+06 	 4.215821e-05 	 2.318801e+07 	
1.25176588e+06 	 4.201361e-05 	 2.316948e+07 	
1.25201601e+06 	 4.186949e-05 	 2.315097e+07 	
1.25226613e+06 	 4.172585e-05 	 2.313247e+07 	
1.25251626e+06 	 4.158267e-05 	 2.311399e+07 	
1.25276638e+06 	 4.143995e-05 	 2.309552e+07 	
1.25301651e+06 	 4.129767e-05 	 2.307706e+07 	
1.25326663e+06 	 4.115584e-05 	 2.305862e+07 	
1.25351676e+06 	 4.101443e-05 	 2.304020e+07 	
1.25376688e+06 	 4.087345e-05 	 2.302178e+07 	
1.25401701e+06 	 4.073288e-05 	 2.300339e+07 	
1.25426713e+06 	 4.059272e-05 	 2.298500e+07 	
1.25451726e+06 	 4.045296e-05 	 2.296663e+07 	
1.25476738e+06 	 4.031359e-05 	 2.294827e+07 	
1.25501751e+06 	 4.017260e-05 	 2.292996e+07 	
1.25526763e+06 	 4.003393e-05 	 2.291163e+07 	
1.25551776e+06 	 3.989563e-05 	 2.289331e+07 	
1.25576788e+06 	 3.975769e-05 	 2.287501e+07 	
1.25601801e+06 	 3.962012e-05 	 2.285672e+07 	
1.25626813e+06 	 3.948290e-05 	 2.283845e+07 	
1.25651826e+06 	 3.934602e-05 	 2.282019e+07 	
1.25676838e+06 	 3.920950e-05 	 2.280194e+07 	
1.25701851e+06 	 3.907331e-05 	 2.278371e+07 	
1.25726863e+06 	 3.893746e-05 	 2.276549e+07 	
1.25751876e+06 	 3.880193e-05 	 2.274728e+07 	
1.25776888e+06 	 3.866673e-05 	 2.272909e+07 	
1.25801901e+06 	 3.853185e-05 	 2.271091e+07 	
1.25826913e+06 	 3.839729e-05 	 2.269274e+07 	
1.25851926e+06 	 3.826304e-05 	 2.267459e+07 	
1.25876938e+06 	 3.812910e-05 	 2.265645e+07 	
1.25901951e+06 	 3.799546e-05 	 2.263832e+07 	
1.25926963e+06 	 3.786212e-05 	 2.262020e+07 	
1.25951976e+06 	 3.773103e-05 	 2.260208e+07 	
1.25976988e+06 	 3.759835e-05 	 2.258399e+07 	
1.26002001e+06 	 3.746597e-05 	 2.256591e+07 	
1.26027014e+06 	 3.733387e-05 	 2.254785e+07 	
1.26052026e+06 	 3.720206e-05 	 2.252980e+07 	
1.26077039e+06 	 3.707054e-05 	 2.251176e+07 	
1.26102051e+06 	 3.693929e-05 	 2.249373e+07 	
1.26127064e+06 	 3.680832e-05 	 2.247572e+07 	
1.26152076e+06 	 3.667763e-05 	 2.245772e+07 	
1.26177089e+06 	 3.654720e-05 	 2.243973e+07 	
1.26202101e+06 	 3.641704e-05 	 2.242176e+07 	
1.26227114e+06 	 3.628715e-05 	 2.240380e+07 	
1.26252126e+06 	 3.615753e-05 	 2.238585e+07 	
1.26277139e+06 	 3.602816e-05 	 2.236791e+07 	
1.26302151e+06 	 3.589906e-05 	 2.234999e+07 	
1.26327164e+06 	 3.577021e-05 	 2.233208e+07 	
1.26352176e+06 	 3.564161e-05 	 2.231418e+07 	
1.26377189e+06 	 3.551145e-05 	 2.229632e+07 	
1.26402201e+06 	 3.538329e-05 	 2.227844e+07 	
1.26427214e+06 	 3.525537e-05 	 2.226058e+07 	
1.26452226e+06 	 3.512770e-05 	 2.224274e+07 	
1.26477239e+06 	 3.500027e-05 	 2.222490e+07 	
1.26502251e+06 	 3.487309e-05 	 2.220708e+07 	
1.26527264e+06 	 3.474613e-05 	 2.218927e+07 	
1.26552276e+06 	 3.461942e-05 	 2.217147e+07 	
1.26577289e+06 	 3.449294e-05 	 2.215369e+07 	
1.26602301e+06 	 3.436669e-05 	 2.213591e+07 	
1.26627314e+06 	 3.424067e-05 	 2.211815e+07 	
1.26652326e+06 	 3.411488e-05 	 2.210040e+07 	
1.26677339e+06 	 3.398932e-05 	 2.208267e+07 	
1.26702351e+06 	 3.386398e-05 	 2.206495e+07 	
1.26727364e+06 	 3.373887e-05 	 2.204723e+07 	
1.26752376e+06 	 3.361398e-05 	 2.202954e+07 	
1.26777389e+06 	 3.348932e-05 	 2.201185e+07 	
1.26802401e+06 	 3.336318e-05 	 2.199420e+07 	
1.26827414e+06 	 3.323888e-05 	 2.197654e+07 	
1.26852426e+06 	 3.311481e-05 	 2.195889e+07 	
1.26877439e+06 	 3.299094e-05 	 2.194125e+07 	
1.26902451e+06 	 3.286729e-05 	 2.192363e+07 	
1.26927464e+06 	 3.274385e-05 	 2.190602e+07 	
1.26952476e+06 	 3.262061e-05 	 2.188842e+07 	
1.26977489e+06 	 3.249759e-05 	 2.187083e+07 	
1.27002501e+06 	 3.237477e-05 	 2.185326e+07 	
1.27027514e+06 	 3.225215e-05 	 2.183570e+07 	
1.27052526e+06 	 3.212974e-05 	 2.181815e+07 	
1.27077539e+06 	 3.200753e-05 	 2.180061e+07 	
1.27102551e+06 	 3.188553e-05 	 2.178308e+07 	
1.27127564e+06 	 3.176372e-05 	 2.176557e+07 	
1.27152576e+06 	 3.164211e-05 	 2.174807e+07 	
1.27177589e+06 	 3.152070e-05 	 2.173058e+07 	
1.27202601e+06 	 3.139949e-05 	 2.171310e+07 	
1.27227614e+06 	 3.127690e-05 	 2.169566e+07 	
1.27252626e+06 	 3.115602e-05 	 2.167821e+07 	
1.27277639e+06 	 3.103532e-05 	 2.166077e+07 	
1.27302651e+06 	 3.091482e-05 	 2.164334e+07 	
1.27327664e+06 	 3.079451e-05 	 2.162593e+07 	
1.27352676e+06 	 3.067438e-05 	 2.160852e+07 	
1.27377689e+06 	 3.055444e-05 	 2.159113e+07 	
1.27402701e+06 	 3.043469e-05 	 2.157376e+07 	
1.27427714e+06 	 3.031512e-05 	 2.155639e+07 	
1.27452726e+06 	 3.019573e-05 	 2.153904e+07 	
1.27477739e+06 	 3.007652e-05 	 2.152169e+07 	
1.27502751e+06 	 2.995750e-05 	 2.150436e+07 	
1.27527764e+06 	 2.983865e-05 	 2.148705e+07 	
1.27552776e+06 	 2.971998e-05 	 2.146974e+07 	
1.27577789e+06 	 2.960149e-05 	 2.145245e+07 	
1.27602801e+06 	 2.948318e-05 	 2.143517e+07 	
1.27627814e+06 	 2.936504e-05 	 2.141790e+07 	
1.27652826e+06 	 2.924707e-05 	 2.140064e+07 	
1.27677839e+06 	 2.912778e-05 	 2.138342e+07 	
1.27702851e+06 	 2.901011e-05 	 2.136619e+07 	
1.27727864e+06 	 2.889260e-05 	 2.134897e+07 	
1.27752876e+06 	 2.877526e-05 	 2.133177e+07 	
1.27777889e+06 	 2.865809e-05 	 2.131457e+07 	
1.27802901e+06 	 2.854109e-05 	 2.129739e+07 	
1.27827914e+06 	 2.842425e-05 	 2.128022e+07 	
1.27852926e+06 	 2.830757e-05 	 2.126306e+07 	
1.27877939e+06 	 2.819106e-05 	 2.124592e+07 	
1.27902951e+06 	 2.807471e-05 	 2.122878e+07 	
1.27927964e+06 	 2.795852e-05 	 2.121166e+07 	
1.27952976e+06 	 2.784248e-05 	 2.119455e+07 	
1.27977989e+06 	 2.772661e-05 	 2.117746e+07 	
1.28003002e+06 	 2.761089e-05 	 2.116037e+07 	
1.28028014e+06 	 2.749533e-05 	 2.114330e+07 	
1.28053027e+06 	 2.737992e-05 	 2.112624e+07 	
1.28078039e+06 	 2.726467e-05 	 2.110919e+07 	
1.28103052e+06 	 2.715096e-05 	 2.109213e+07 	
1.28128064e+06 	 2.703606e-05 	 2.107511e+07 	
1.28153077e+06 	 2.692131e-05 	 2.105810e+07 	
1.28178089e+06 	 2.680672e-05 	 2.104110e+07 	
1.28203102e+06 	 2.669227e-05 	 2.102411e+07 	
1.28228114e+06 	 2.657798e-05 	 2.100714e+07 	
1.28253127e+06 	 2.646383e-05 	 2.099017e+07 	
1.28278139e+06 	 2.634983e-05 	 2.097322e+07 	
1.28303152e+06 	 2.623598e-05 	 2.095629e+07 	
1.28328164e+06 	 2.612227e-05 	 2.093936e+07 	
1.28353177e+06 	 2.600871e-05 	 2.092245e+07 	
1.28378189e+06 	 2.589529e-05 	 2.090555e+07 	
1.28403202e+06 	 2.578201e-05 	 2.088866e+07 	
1.28428214e+06 	 2.566887e-05 	 2.087178e+07 	
1.28453227e+06 	 2.555587e-05 	 2.085492e+07 	
1.28478239e+06 	 2.544301e-05 	 2.083806e+07 	
1.28503252e+06 	 2.533029e-05 	 2.082123e+07 	
1.28528264e+06 	 2.521897e-05 	 2.080438e+07 	
1.28553277e+06 	 2.510657e-05 	 2.078756e+07 	
1.28578289e+06 	 2.499430e-05 	 2.077076e+07 	
1.28603302e+06 	 2.488217e-05 	 2.075397e+07 	
1.28628314e+06 	 2.477017e-05 	 2.073719e+07 	
