r (cm)        	 rho (g/cm3) 	 T (K)       		 Linf = 3.117766e+38
1.20001749e+06 	 1.311211e+05 	 1.237461e+09 	
1.20005248e+06 	 1.248593e+05 	 1.222039e+09 	
1.20016440e+06 	 1.064524e+05 	 1.173108e+09 	
1.20025716e+06 	 9.294225e+04 	 1.133033e+09 	
1.20034993e+06 	 8.087647e+04 	 1.093408e+09 	
1.20044269e+06 	 7.013346e+04 	 1.054249e+09 	
1.20053545e+06 	 6.059862e+04 	 1.015573e+09 	
1.20062632e+06 	 5.232575e+04 	 9.781681e+08 	
1.20071720e+06 	 4.501372e+04 	 9.412595e+08 	
1.20080807e+06 	 3.857339e+04 	 9.048639e+08 	
1.20088232e+06 	 3.390003e+04 	 8.755197e+08 	
1.20095656e+06 	 2.971018e+04 	 8.465401e+08 	
1.20103081e+06 	 2.596363e+04 	 8.179354e+08 	
1.20110506e+06 	 2.262252e+04 	 7.897162e+08 	
1.20117931e+06 	 1.965133e+04 	 7.618934e+08 	
1.20125270e+06 	 1.704529e+04 	 7.347913e+08 	
1.20132610e+06 	 1.473810e+04 	 7.080985e+08 	
1.20139949e+06 	 1.270171e+04 	 6.818264e+08 	
1.20146032e+06 	 1.120035e+04 	 6.603775e+08 	
1.20152116e+06 	 9.853149e+03 	 6.392322e+08 	
1.20158199e+06 	 8.647054e+03 	 6.183971e+08 	
1.20164282e+06 	 7.569838e+03 	 5.978790e+08 	
1.20170366e+06 	 6.610066e+03 	 5.776848e+08 	
1.20176436e+06 	 5.758792e+03 	 5.578636e+08 	
1.20182506e+06 	 5.003966e+03 	 5.383786e+08 	
1.20188576e+06 	 4.336416e+03 	 5.192367e+08 	
1.20193589e+06 	 3.844934e+03 	 5.036942e+08 	
1.20198601e+06 	 3.402694e+03 	 4.883942e+08 	
1.20203613e+06 	 3.005527e+03 	 4.733404e+08 	
1.20208626e+06 	 2.649537e+03 	 4.585367e+08 	
1.20213638e+06 	 2.331092e+03 	 4.439868e+08 	
1.20218651e+06 	 2.046813e+03 	 4.296943e+08 	
1.20223705e+06 	 1.791578e+03 	 4.155475e+08 	
1.20228759e+06 	 1.564904e+03 	 4.016696e+08 	
1.20233813e+06 	 1.364034e+03 	 3.880643e+08 	
1.20238003e+06 	 1.215237e+03 	 3.769933e+08 	
1.20242193e+06 	 1.081083e+03 	 3.661138e+08 	
1.20246383e+06 	 9.603197e+02 	 3.554275e+08 	
1.20250573e+06 	 8.517834e+02 	 3.449363e+08 	
1.20254764e+06 	 7.543918e+02 	 3.346416e+08 	
1.20258954e+06 	 6.671417e+02 	 3.245451e+08 	
1.20263144e+06 	 5.891045e+02 	 3.146481e+08 	
1.20267486e+06 	 5.170511e+02 	 3.046056e+08 	
1.20271827e+06 	 4.530880e+02 	 2.947801e+08 	
1.20275420e+06 	 4.056942e+02 	 2.868137e+08 	
1.20279013e+06 	 3.628652e+02 	 2.789973e+08 	
1.20282606e+06 	 3.242090e+02 	 2.713315e+08 	
1.20286199e+06 	 2.893621e+02 	 2.638167e+08 	
1.20289792e+06 	 2.579880e+02 	 2.564533e+08 	
1.20293385e+06 	 2.297753e+02 	 2.492415e+08 	
1.20296978e+06 	 2.044369e+02 	 2.421817e+08 	
1.20300571e+06 	 1.817079e+02 	 2.352738e+08 	
1.20304164e+06 	 1.613445e+02 	 2.285179e+08 	
1.20307963e+06 	 1.421364e+02 	 2.215391e+08 	
1.20311129e+06 	 1.277845e+02 	 2.158534e+08 	
1.20314295e+06 	 1.147981e+02 	 2.102853e+08 	
1.20317461e+06 	 1.030582e+02 	 2.048346e+08 	
1.20320627e+06 	 9.245479e+01 	 1.995010e+08 	
1.20323793e+06 	 8.288659e+01 	 1.942841e+08 	
1.20326959e+06 	 7.426021e+01 	 1.891834e+08 	
1.20330125e+06 	 6.648978e+01 	 1.841984e+08 	
1.20333291e+06 	 5.949642e+01 	 1.793286e+08 	
1.20336457e+06 	 5.320778e+01 	 1.745734e+08 	
1.20339623e+06 	 4.755753e+01 	 1.699320e+08 	
1.20342789e+06 	 4.248501e+01 	 1.654037e+08 	
1.20345956e+06 	 3.793475e+01 	 1.609876e+08 	
1.20348924e+06 	 3.409758e+01 	 1.569481e+08 	
1.20351893e+06 	 3.063688e+01 	 1.530057e+08 	
1.20354861e+06 	 2.751770e+01 	 1.491595e+08 	
1.20357830e+06 	 2.470809e+01 	 1.454088e+08 	
1.20360798e+06 	 2.217882e+01 	 1.417524e+08 	
1.20363767e+06 	 1.990323e+01 	 1.381896e+08 	
1.20366736e+06 	 1.785699e+01 	 1.347192e+08 	
1.20369704e+06 	 1.601796e+01 	 1.313402e+08 	
1.20372673e+06 	 1.436596e+01 	 1.280514e+08 	
1.20375641e+06 	 1.288267e+01 	 1.248518e+08 	
1.20378610e+06 	 1.155144e+01 	 1.217401e+08 	
1.20381579e+06 	 1.035718e+01 	 1.187151e+08 	
1.20384547e+06 	 9.286197e+00 	 1.157755e+08 	
1.20387516e+06 	 8.326096e+00 	 1.129201e+08 	
1.20390484e+06 	 7.465670e+00 	 1.101474e+08 	
1.20393453e+06 	 6.694785e+00 	 1.074562e+08 	
1.20396615e+06 	 5.961797e+00 	 1.046773e+08 	
1.20399778e+06 	 5.310111e+00 	 1.019875e+08 	
1.20402940e+06 	 4.730821e+00 	 9.938509e+07 	
1.20406103e+06 	 4.215964e+00 	 9.686828e+07 	
1.20409265e+06 	 3.758421e+00 	 9.443527e+07 	
1.20412427e+06 	 3.351837e+00 	 9.208424e+07 	
1.20415590e+06 	 2.990543e+00 	 8.981335e+07 	
1.20418752e+06 	 2.669483e+00 	 8.762074e+07 	
1.20421915e+06 	 2.384157e+00 	 8.550455e+07 	
1.20425077e+06 	 2.130555e+00 	 8.346290e+07 	
1.20428240e+06 	 1.905112e+00 	 8.149389e+07 	
1.20431402e+06 	 1.704659e+00 	 7.959565e+07 	
1.20434565e+06 	 1.526380e+00 	 7.776629e+07 	
1.20438325e+06 	 1.339818e+00 	 7.567817e+07 	
1.20442085e+06 	 1.177388e+00 	 7.368160e+07 	
1.20445845e+06 	 1.035888e+00 	 7.177342e+07 	
1.20449605e+06 	 9.125405e-01 	 6.995052e+07 	
1.20453365e+06 	 8.049396e-01 	 6.820982e+07 	
1.20457126e+06 	 7.110011e-01 	 6.654825e+07 	
1.20460886e+06 	 6.289202e-01 	 6.496281e+07 	
1.20464646e+06 	 5.571343e-01 	 6.345052e+07 	
1.20468406e+06 	 4.942905e-01 	 6.200848e+07 	
1.20473023e+06 	 4.276458e-01 	 6.032966e+07 	
1.20477640e+06 	 3.708793e-01 	 5.874728e+07 	
1.20482258e+06 	 3.224421e-01 	 5.725631e+07 	
1.20486875e+06 	 2.810359e-01 	 5.585187e+07 	
1.20491492e+06 	 2.455722e-01 	 5.452927e+07 	
1.20496109e+06 	 2.151375e-01 	 5.328396e+07 	
1.20501654e+06 	 1.841613e-01 	 5.188443e+07 	
1.20507199e+06 	 1.582398e-01 	 5.058286e+07 	
1.20512744e+06 	 1.364803e-01 	 4.937242e+07 	
1.20518289e+06 	 1.181559e-01 	 4.824661e+07 	
1.20524828e+06 	 1.001592e-01 	 4.701934e+07 	
1.20531368e+06 	 8.534014e-02 	 4.589197e+07 	
1.20537907e+06 	 7.308132e-02 	 4.485584e+07 	
1.20545259e+06 	 6.175262e-02 	 4.379004e+07 	
1.20552611e+06 	 5.249857e-02 	 4.281908e+07 	
1.20560928e+06 	 4.400189e-02 	 4.182319e+07 	
1.20569245e+06 	 3.714972e-02 	 4.092441e+07 	
1.20578668e+06 	 3.092576e-02 	 4.000976e+07 	
1.20588091e+06 	 2.596494e-02 	 3.919190e+07 	
1.20598743e+06 	 2.151627e-02 	 3.836875e+07 	
1.20609395e+06 	 1.800355e-02 	 3.763879e+07 	
1.20621412e+06 	 1.488521e-02 	 3.691119e+07 	
1.20633428e+06 	 1.243963e-02 	 3.627040e+07 	
1.20647034e+06 	 1.027404e-02 	 3.563347e+07 	
1.20660640e+06 	 8.584995e-03 	 3.507588e+07 	
1.20675933e+06 	 7.105360e-03 	 3.452825e+07 	
1.20691225e+06 	 5.953183e-03 	 3.405045e+07 	
1.20710141e+06 	 4.856694e-03 	 3.353891e+07 	
1.20729056e+06 	 4.022569e-03 	 3.309917e+07 	
1.20747972e+06 	 3.376977e-03 	 3.271780e+07 	
1.20772656e+06 	 2.736461e-03 	 3.229084e+07 	
1.20797340e+06 	 2.257499e-03 	 3.192786e+07 	
1.20822024e+06 	 1.891777e-03 	 3.161565e+07 	
1.20849425e+06 	 1.579956e-03 	 3.131654e+07 	
1.20876826e+06 	 1.339265e-03 	 3.105749e+07 	
1.20904227e+06 	 1.150152e-03 	 3.083076e+07 	
1.20943761e+06 	 9.420063e-04 	 3.054890e+07 	
1.20964954e+06 	 8.536981e-04 	 3.041575e+07 	
1.21009610e+06 	 7.057046e-04 	 3.016785e+07 	
1.21046255e+06 	 6.128524e-04 	 2.999134e+07 	
1.21109124e+06 	 4.941941e-04 	 2.973172e+07 	
1.21171992e+06 	 4.099585e-04 	 2.951342e+07 	
1.21234860e+06 	 3.480942e-04 	 2.932575e+07 	
1.21307148e+06 	 2.953558e-04 	 2.913844e+07 	
1.21379436e+06 	 2.559625e-04 	 2.897432e+07 	
1.21451724e+06 	 2.257655e-04 	 2.882803e+07 	
1.21560388e+06 	 1.920930e-04 	 2.863356e+07 	
1.21669052e+06 	 1.678152e-04 	 2.846194e+07 	
1.21777717e+06 	 1.497242e-04 	 2.830724e+07 	
1.21939578e+06 	 1.302449e-04 	 2.809976e+07 	
1.22036473e+06 	 1.214980e-04 	 2.798547e+07 	
1.22233711e+06 	 1.080969e-04 	 2.776953e+07 	
1.22395676e+06 	 1.001039e-04 	 2.760475e+07 	
1.22652810e+06 	 9.089424e-05 	 2.735937e+07 	
1.22855156e+06 	 8.559469e-05 	 2.717631e+07 	
1.23213412e+06 	 7.872556e-05 	 2.686682e+07 	
1.23358810e+06 	 7.654034e-05 	 2.674512e+07 	
1.23794759e+06 	 7.124092e-05 	 2.638958e+07 	
1.24082771e+06 	 6.840808e-05 	 2.616047e+07 	
1.24708532e+06 	 6.324092e-05 	 2.567371e+07 	
1.24970856e+06 	 6.132151e-05 	 2.547321e+07 	
1.24997088e+06 	 6.113517e-05 	 2.545326e+07 	
1.24999711e+06 	 6.111658e-05 	 2.545126e+07 	
1.24999974e+06 	 6.111472e-05 	 2.545106e+07 	
1.25000000e+06 	 6.111454e-05 	 2.545104e+07 	
1.25050050e+06 	 6.076171e-05 	 2.541303e+07 	
1.25100100e+06 	 6.041203e-05 	 2.537508e+07 	
1.25150150e+06 	 6.006537e-05 	 2.533720e+07 	
1.25200200e+06 	 5.972160e-05 	 2.529937e+07 	
1.25250250e+06 	 5.938060e-05 	 2.526161e+07 	
1.25300300e+06 	 5.904230e-05 	 2.522390e+07 	
1.25350350e+06 	 5.870668e-05 	 2.518625e+07 	
1.25400400e+06 	 5.837337e-05 	 2.514866e+07 	
1.25450450e+06 	 5.804233e-05 	 2.511113e+07 	
1.25500501e+06 	 5.771349e-05 	 2.507365e+07 	
1.25550551e+06 	 5.738680e-05 	 2.503623e+07 	
1.25600601e+06 	 5.706221e-05 	 2.499886e+07 	
1.25650651e+06 	 5.673967e-05 	 2.496155e+07 	
1.25700701e+06 	 5.641912e-05 	 2.492429e+07 	
1.25750751e+06 	 5.610050e-05 	 2.488709e+07 	
1.25800801e+06 	 5.578377e-05 	 2.484994e+07 	
1.25850851e+06 	 5.546886e-05 	 2.481285e+07 	
1.25900901e+06 	 5.515573e-05 	 2.477580e+07 	
1.25950951e+06 	 5.484433e-05 	 2.473881e+07 	
1.26001001e+06 	 5.453458e-05 	 2.470187e+07 	
1.26051051e+06 	 5.422646e-05 	 2.466499e+07 	
1.26101101e+06 	 5.391989e-05 	 2.462815e+07 	
1.26151151e+06 	 5.361486e-05 	 2.459137e+07 	
1.26201201e+06 	 5.331139e-05 	 2.455464e+07 	
1.26251251e+06 	 5.300934e-05 	 2.451795e+07 	
1.26301301e+06 	 5.270870e-05 	 2.448132e+07 	
1.26351351e+06 	 5.240945e-05 	 2.444474e+07 	
1.26401401e+06 	 5.211157e-05 	 2.440820e+07 	
1.26451451e+06 	 5.181504e-05 	 2.437172e+07 	
1.26501502e+06 	 5.151986e-05 	 2.433528e+07 	
1.26551552e+06 	 5.122600e-05 	 2.429890e+07 	
1.26601602e+06 	 5.093343e-05 	 2.426256e+07 	
1.26651652e+06 	 5.064216e-05 	 2.422628e+07 	
1.26701702e+06 	 5.035215e-05 	 2.419004e+07 	
1.26751752e+06 	 5.006340e-05 	 2.415385e+07 	
1.26801802e+06 	 4.977588e-05 	 2.411771e+07 	
1.26851852e+06 	 4.948957e-05 	 2.408161e+07 	
1.26901902e+06 	 4.920447e-05 	 2.404557e+07 	
1.26951952e+06 	 4.892054e-05 	 2.400957e+07 	
1.27002002e+06 	 4.863778e-05 	 2.397363e+07 	
1.27052052e+06 	 4.835617e-05 	 2.393772e+07 	
1.27102102e+06 	 4.807569e-05 	 2.390187e+07 	
1.27152152e+06 	 4.779632e-05 	 2.386606e+07 	
1.27202202e+06 	 4.751806e-05 	 2.383031e+07 	
1.27252252e+06 	 4.724091e-05 	 2.379459e+07 	
1.27302302e+06 	 4.696484e-05 	 2.375893e+07 	
1.27352352e+06 	 4.668983e-05 	 2.372331e+07 	
1.27402402e+06 	 4.641587e-05 	 2.368774e+07 	
1.27452452e+06 	 4.614296e-05 	 2.365222e+07 	
1.27502503e+06 	 4.587109e-05 	 2.361674e+07 	
1.27552553e+06 	 4.560025e-05 	 2.358131e+07 	
1.27602603e+06 	 4.533044e-05 	 2.354593e+07 	
1.27652653e+06 	 4.506164e-05 	 2.351059e+07 	
1.27702703e+06 	 4.479385e-05 	 2.347530e+07 	
1.27752753e+06 	 4.452706e-05 	 2.344005e+07 	
1.27802803e+06 	 4.426127e-05 	 2.340485e+07 	
1.27852853e+06 	 4.399646e-05 	 2.336970e+07 	
1.27902903e+06 	 4.373263e-05 	 2.333460e+07 	
1.27952953e+06 	 4.347204e-05 	 2.329951e+07 	
1.28003003e+06 	 4.321032e-05 	 2.326449e+07 	
1.28053053e+06 	 4.294956e-05 	 2.322952e+07 	
1.28103103e+06 	 4.268976e-05 	 2.319460e+07 	
1.28153153e+06 	 4.243092e-05 	 2.315972e+07 	
1.28203203e+06 	 4.217301e-05 	 2.312488e+07 	
1.28253253e+06 	 4.191605e-05 	 2.309009e+07 	
1.28303303e+06 	 4.166002e-05 	 2.305535e+07 	
1.28353353e+06 	 4.140492e-05 	 2.302065e+07 	
1.28403403e+06 	 4.114865e-05 	 2.298602e+07 	
1.28453453e+06 	 4.089524e-05 	 2.295142e+07 	
1.28503504e+06 	 4.064273e-05 	 2.291685e+07 	
1.28553554e+06 	 4.039111e-05 	 2.288234e+07 	
1.28603604e+06 	 4.014038e-05 	 2.284787e+07 	
1.28653654e+06 	 3.989054e-05 	 2.281344e+07 	
1.28703704e+06 	 3.964158e-05 	 2.277906e+07 	
1.28753754e+06 	 3.939349e-05 	 2.274472e+07 	
1.28803804e+06 	 3.914627e-05 	 2.271043e+07 	
1.28853854e+06 	 3.889991e-05 	 2.267618e+07 	
1.28903904e+06 	 3.865232e-05 	 2.264200e+07 	
1.28953954e+06 	 3.840752e-05 	 2.260784e+07 	
1.29004004e+06 	 3.816355e-05 	 2.257373e+07 	
1.29054054e+06 	 3.792042e-05 	 2.253966e+07 	
1.29104104e+06 	 3.767811e-05 	 2.250564e+07 	
1.29154154e+06 	 3.743662e-05 	 2.247166e+07 	
1.29204204e+06 	 3.719594e-05 	 2.243772e+07 	
1.29254254e+06 	 3.695608e-05 	 2.240383e+07 	
1.29304304e+06 	 3.671701e-05 	 2.236999e+07 	
1.29354354e+06 	 3.647680e-05 	 2.233621e+07 	
1.29404404e+06 	 3.623919e-05 	 2.230245e+07 	
1.29454454e+06 	 3.600235e-05 	 2.226874e+07 	
1.29504505e+06 	 3.576629e-05 	 2.223507e+07 	
1.29554555e+06 	 3.553099e-05 	 2.220145e+07 	
1.29604605e+06 	 3.529646e-05 	 2.216787e+07 	
1.29654655e+06 	 3.506267e-05 	 2.213433e+07 	
1.29704705e+06 	 3.482964e-05 	 2.210084e+07 	
1.29754755e+06 	 3.459735e-05 	 2.206739e+07 	
1.29804805e+06 	 3.436760e-05 	 2.203396e+07 	
1.29854855e+06 	 3.413691e-05 	 2.200060e+07 	
1.29904905e+06 	 3.390694e-05 	 2.196728e+07 	
1.29954955e+06 	 3.367770e-05 	 2.193401e+07 	
1.30005005e+06 	 3.344919e-05 	 2.190078e+07 	
1.30055055e+06 	 3.322138e-05 	 2.186759e+07 	
1.30105105e+06 	 3.299429e-05 	 2.183445e+07 	
1.30155155e+06 	 3.276791e-05 	 2.180135e+07 	
1.30205205e+06 	 3.254222e-05 	 2.176829e+07 	
1.30255255e+06 	 3.231891e-05 	 2.173526e+07 	
1.30305305e+06 	 3.209473e-05 	 2.170229e+07 	
1.30355355e+06 	 3.187123e-05 	 2.166936e+07 	
1.30405405e+06 	 3.164843e-05 	 2.163647e+07 	
1.30455455e+06 	 3.142630e-05 	 2.160363e+07 	
1.30505506e+06 	 3.120485e-05 	 2.157083e+07 	
1.30555556e+06 	 3.098407e-05 	 2.153808e+07 	
1.30605606e+06 	 3.076395e-05 	 2.150537e+07 	
1.30655656e+06 	 3.054450e-05 	 2.147270e+07 	
1.30705706e+06 	 3.032414e-05 	 2.144010e+07 	
1.30755756e+06 	 3.010588e-05 	 2.140752e+07 	
1.30805806e+06 	 2.988826e-05 	 2.137498e+07 	
1.30855856e+06 	 2.967128e-05 	 2.134249e+07 	
1.30905906e+06 	 2.945492e-05 	 2.131004e+07 	
1.30955956e+06 	 2.923919e-05 	 2.127763e+07 	
1.31006006e+06 	 2.902407e-05 	 2.124527e+07 	
1.31056056e+06 	 2.880957e-05 	 2.121295e+07 	
1.31106106e+06 	 2.859567e-05 	 2.118067e+07 	
1.31156156e+06 	 2.838093e-05 	 2.114846e+07 	
1.31206206e+06 	 2.816813e-05 	 2.111627e+07 	
1.31256256e+06 	 2.795591e-05 	 2.108412e+07 	
1.31306306e+06 	 2.774427e-05 	 2.105202e+07 	
1.31356356e+06 	 2.753320e-05 	 2.101996e+07 	
1.31406406e+06 	 2.732269e-05 	 2.098795e+07 	
1.31456456e+06 	 2.711275e-05 	 2.095597e+07 	
1.31506507e+06 	 2.690336e-05 	 2.092404e+07 	
1.31556557e+06 	 2.669452e-05 	 2.089216e+07 	
1.31606607e+06 	 2.648754e-05 	 2.086029e+07 	
1.31656657e+06 	 2.627987e-05 	 2.082849e+07 	
1.31706707e+06 	 2.607273e-05 	 2.079674e+07 	
1.31756757e+06 	 2.586613e-05 	 2.076502e+07 	
1.31806807e+06 	 2.566004e-05 	 2.073335e+07 	
1.31856857e+06 	 2.545448e-05 	 2.070173e+07 	
1.31906907e+06 	 2.524942e-05 	 2.067014e+07 	
1.31956957e+06 	 2.504488e-05 	 2.063860e+07 	
1.32007007e+06 	 2.484083e-05 	 2.060711e+07 	
1.32057057e+06 	 2.463728e-05 	 2.057565e+07 	
1.32107107e+06 	 2.443551e-05 	 2.054422e+07 	
1.32157157e+06 	 2.423302e-05 	 2.051286e+07 	
1.32207207e+06 	 2.403101e-05 	 2.048153e+07 	
1.32257257e+06 	 2.382948e-05 	 2.045025e+07 	
1.32307307e+06 	 2.362841e-05 	 2.041902e+07 	
1.32357357e+06 	 2.342782e-05 	 2.038783e+07 	
1.32407407e+06 	 2.322768e-05 	 2.035668e+07 	
1.32457457e+06 	 2.302799e-05 	 2.032558e+07 	
1.32507508e+06 	 2.282875e-05 	 2.029452e+07 	
1.32557558e+06 	 2.262876e-05 	 2.026353e+07 	
1.32607608e+06 	 2.243031e-05 	 2.023256e+07 	
1.32657658e+06 	 2.223229e-05 	 2.020163e+07 	
1.32707708e+06 	 2.203469e-05 	 2.017075e+07 	
1.32757758e+06 	 2.183749e-05 	 2.013992e+07 	
1.32807808e+06 	 2.164070e-05 	 2.010913e+07 	
1.32857858e+06 	 2.144431e-05 	 2.007838e+07 	
1.32907908e+06 	 2.124832e-05 	 2.004768e+07 	
1.32957958e+06 	 2.105271e-05 	 2.001703e+07 	
1.33008008e+06 	 2.085639e-05 	 1.998644e+07 	
1.33058058e+06 	 2.066146e-05 	 1.995588e+07 	
1.33108108e+06 	 2.046688e-05 	 1.992536e+07 	
1.33158158e+06 	 2.027267e-05 	 1.989489e+07 	
1.33208208e+06 	 2.007880e-05 	 1.986447e+07 	
1.33258258e+06 	 1.988527e-05 	 1.983409e+07 	
1.33308308e+06 	 1.969207e-05 	 1.980376e+07 	
1.33358358e+06 	 1.949920e-05 	 1.977348e+07 	
1.33408408e+06 	 1.930665e-05 	 1.974324e+07 	
1.33458458e+06 	 1.911343e-05 	 1.971307e+07 	
1.33508509e+06 	 1.892143e-05 	 1.968293e+07 	
1.33558559e+06 	 1.872973e-05 	 1.965284e+07 	
1.33608609e+06 	 1.853831e-05 	 1.962280e+07 	
1.33658659e+06 	 1.834717e-05 	 1.959280e+07 	
1.33708709e+06 	 1.815630e-05 	 1.956285e+07 	
1.33758759e+06 	 1.796569e-05 	 1.953296e+07 	
1.33808809e+06 	 1.777534e-05 	 1.950311e+07 	
1.33858859e+06 	 1.758524e-05 	 1.947331e+07 	
1.33908909e+06 	 1.739449e-05 	 1.944359e+07 	
1.33958959e+06 	 1.720480e-05 	 1.941389e+07 	
1.34009009e+06 	 1.701533e-05 	 1.938425e+07 	
1.34059059e+06 	 1.682608e-05 	 1.935466e+07 	
1.34109109e+06 	 1.663703e-05 	 1.932512e+07 	
1.34159159e+06 	 1.644817e-05 	 1.929563e+07 	
1.34209209e+06 	 1.625950e-05 	 1.926619e+07 	
1.34259259e+06 	 1.607102e-05 	 1.923681e+07 	
1.34309309e+06 	 1.588270e-05 	 1.920749e+07 	
1.34359359e+06 	 1.569535e-05 	 1.917819e+07 	
1.34409409e+06 	 1.550740e-05 	 1.914898e+07 	
1.34459459e+06 	 1.531961e-05 	 1.911981e+07 	
1.34509510e+06 	 1.513196e-05 	 1.909071e+07 	
1.34559560e+06 	 1.494445e-05 	 1.906166e+07 	
1.34609610e+06 	 1.475706e-05 	 1.903267e+07 	
1.34659660e+06 	 1.456980e-05 	 1.900374e+07 	
1.34709710e+06 	 1.438264e-05 	 1.897487e+07 	
1.34759760e+06 	 1.419560e-05 	 1.894606e+07 	
1.34809810e+06 	 1.400794e-05 	 1.891733e+07 	
1.34859860e+06 	 1.382104e-05 	 1.888864e+07 	
1.34909910e+06 	 1.363422e-05 	 1.886002e+07 	
1.34959960e+06 	 1.344747e-05 	 1.883146e+07 	
1.35010010e+06 	 1.326079e-05 	 1.880297e+07 	
1.35060060e+06 	 1.307417e-05 	 1.877454e+07 	
1.35110110e+06 	 1.288761e-05 	 1.874618e+07 	
1.35160160e+06 	 1.270111e-05 	 1.871789e+07 	
1.35210210e+06 	 1.251465e-05 	 1.868967e+07 	
1.35260260e+06 	 1.232884e-05 	 1.866150e+07 	
1.35310310e+06 	 1.214250e-05 	 1.863342e+07 	
1.35360360e+06 	 1.195620e-05 	 1.860542e+07 	
1.35410410e+06 	 1.176993e-05 	 1.857749e+07 	
1.35460460e+06 	 1.158369e-05 	 1.854964e+07 	
1.35510511e+06 	 1.139748e-05 	 1.852187e+07 	
1.35560561e+06 	 1.121131e-05 	 1.849418e+07 	
1.35610611e+06 	 1.102516e-05 	 1.846657e+07 	
1.35660661e+06 	 1.083905e-05 	 1.843904e+07 	
1.35710711e+06 	 1.065244e-05 	 1.841162e+07 	
1.35760761e+06 	 1.046637e-05 	 1.838427e+07 	
1.35810811e+06 	 1.028034e-05 	 1.835701e+07 	
1.35860861e+06 	 1.009436e-05 	 1.832984e+07 	
1.35910911e+06 	 9.908439e-06 	 1.830277e+07 	
1.35960961e+06 	 9.722578e-06 	 1.827579e+07 	
1.36011011e+06 	 9.536793e-06 	 1.824892e+07 	
1.36061061e+06 	 9.351095e-06 	 1.822214e+07 	
1.36111111e+06 	 9.165500e-06 	 1.819547e+07 	
1.36161161e+06 	 8.979571e-06 	 1.816893e+07 	
1.36211211e+06 	 8.794204e-06 	 1.814248e+07 	
1.36261261e+06 	 8.608992e-06 	 1.811615e+07 	
1.36311311e+06 	 8.423959e-06 	 1.808993e+07 	
1.36361361e+06 	 8.239130e-06 	 1.806383e+07 	
1.36411411e+06 	 8.054534e-06 	 1.803786e+07 	
1.36461461e+06 	 7.870202e-06 	 1.801201e+07 	
1.36511512e+06 	 7.686168e-06 	 1.798629e+07 	
1.36561562e+06 	 7.502469e-06 	 1.796071e+07 	
1.36611612e+06 	 7.319515e-06 	 1.793525e+07 	
1.36661662e+06 	 7.136631e-06 	 1.790995e+07 	
1.36711712e+06 	 6.954215e-06 	 1.788480e+07 	
1.36761762e+06 	 6.772319e-06 	 1.785980e+07 	
1.36811812e+06 	 6.590998e-06 	 1.783495e+07 	
1.36861862e+06 	 6.410310e-06 	 1.781027e+07 	
1.36911912e+06 	 6.230321e-06 	 1.778575e+07 	
1.36961962e+06 	 6.051096e-06 	 1.776140e+07 	
1.37012012e+06 	 5.872708e-06 	 1.773723e+07 	
1.37062062e+06 	 5.695525e-06 	 1.771322e+07 	
1.37112112e+06 	 5.519060e-06 	 1.768941e+07 	
1.37162162e+06 	 5.343674e-06 	 1.766580e+07 	
1.37212212e+06 	 5.169459e-06 	 1.764238e+07 	
1.37262262e+06 	 4.996509e-06 	 1.761917e+07 	
1.37312312e+06 	 4.824922e-06 	 1.759617e+07 	
1.37362362e+06 	 4.654801e-06 	 1.757338e+07 	
1.37412412e+06 	 4.486255e-06 	 1.755081e+07 	
1.37462462e+06 	 4.319395e-06 	 1.752848e+07 	
1.37512513e+06 	 4.154120e-06 	 1.750640e+07 	
1.37562563e+06 	 3.990971e-06 	 1.748454e+07 	
1.37612613e+06 	 3.829865e-06 	 1.746293e+07 	
1.37662663e+06 	 3.670925e-06 	 1.744157e+07 	
1.37712713e+06 	 3.514280e-06 	 1.742048e+07 	
1.37762763e+06 	 3.360059e-06 	 1.739965e+07 	
