r (cm)        	 rho (g/cm3) 	 T (K)       		 Linf = 3.186548e+38
1.20000016e+06 	 1.296674e+05 	 1.244284e+09 	
1.20005883e+06 	 1.195524e+05 	 1.218738e+09 	
1.20016337e+06 	 1.031378e+05 	 1.173637e+09 	
1.20026863e+06 	 8.853450e+04 	 1.128791e+09 	
1.20037389e+06 	 7.568406e+04 	 1.084534e+09 	
1.20045937e+06 	 6.642165e+04 	 1.049038e+09 	
1.20054486e+06 	 5.812091e+04 	 1.013959e+09 	
1.20063035e+06 	 5.070238e+04 	 9.793081e+08 	
1.20071584e+06 	 4.409119e+04 	 9.451004e+08 	
1.20080132e+06 	 3.821693e+04 	 9.113494e+08 	
1.20088550e+06 	 3.308848e+04 	 8.785758e+08 	
1.20096968e+06 	 2.855136e+04 	 8.462734e+08 	
1.20105386e+06 	 2.455031e+04 	 8.144567e+08 	
1.20112321e+06 	 2.162027e+04 	 7.886205e+08 	
1.20119256e+06 	 1.899204e+04 	 7.631329e+08 	
1.20126190e+06 	 1.664025e+04 	 7.380027e+08 	
1.20133125e+06 	 1.454108e+04 	 7.132387e+08 	
1.20140060e+06 	 1.267222e+04 	 6.888500e+08 	
1.20146954e+06 	 1.102207e+04 	 6.649867e+08 	
1.20153848e+06 	 9.559796e+03 	 6.415126e+08 	
1.20160742e+06 	 8.267632e+03 	 6.184370e+08 	
1.20166396e+06 	 7.323236e+03 	 5.998161e+08 	
1.20172050e+06 	 6.473626e+03 	 5.814747e+08 	
1.20177703e+06 	 5.710838e+03 	 5.634180e+08 	
1.20183357e+06 	 5.027419e+03 	 5.456511e+08 	
1.20189011e+06 	 4.416407e+03 	 5.281792e+08 	
1.20194665e+06 	 3.871313e+03 	 5.110074e+08 	
1.20200346e+06 	 3.383905e+03 	 4.940605e+08 	
1.20206027e+06 	 2.951268e+03 	 4.774269e+08 	
1.20211708e+06 	 2.568140e+03 	 4.611115e+08 	
1.20216385e+06 	 2.286418e+03 	 4.479212e+08 	
1.20221062e+06 	 2.032430e+03 	 4.349525e+08 	
1.20225739e+06 	 1.803826e+03 	 4.222081e+08 	
1.20230417e+06 	 1.598411e+03 	 4.096906e+08 	
1.20235094e+06 	 1.414148e+03 	 3.974023e+08 	
1.20239771e+06 	 1.249140e+03 	 3.853457e+08 	
1.20244448e+06 	 1.101631e+03 	 3.735229e+08 	
1.20249285e+06 	 9.657759e+02 	 3.615458e+08 	
1.20254121e+06 	 8.452368e+02 	 3.498232e+08 	
1.20258094e+06 	 7.565997e+02 	 3.403852e+08 	
1.20262067e+06 	 6.764872e+02 	 3.311214e+08 	
1.20266040e+06 	 6.041734e+02 	 3.220328e+08 	
1.20270013e+06 	 5.389837e+02 	 3.131202e+08 	
1.20273987e+06 	 4.802928e+02 	 3.043845e+08 	
1.20277960e+06 	 4.275216e+02 	 2.958263e+08 	
1.20281933e+06 	 3.801348e+02 	 2.874462e+08 	
1.20285906e+06 	 3.376383e+02 	 2.792447e+08 	
1.20289879e+06 	 2.995769e+02 	 2.712222e+08 	
1.20294077e+06 	 2.637154e+02 	 2.629400e+08 	
1.20297547e+06 	 2.371367e+02 	 2.562456e+08 	
1.20301017e+06 	 2.130763e+02 	 2.496881e+08 	
1.20304486e+06 	 1.913165e+02 	 2.432673e+08 	
1.20307956e+06 	 1.716561e+02 	 2.369830e+08 	
1.20311426e+06 	 1.539093e+02 	 2.308350e+08 	
1.20314896e+06 	 1.379048e+02 	 2.248231e+08 	
1.20318366e+06 	 1.234847e+02 	 2.189468e+08 	
1.20321835e+06 	 1.105039e+02 	 2.132057e+08 	
1.20325305e+06 	 9.882900e+01 	 2.075992e+08 	
1.20328775e+06 	 8.833781e+01 	 2.021266e+08 	
1.20332245e+06 	 7.891828e+01 	 1.967873e+08 	
1.20335715e+06 	 7.046790e+01 	 1.915804e+08 	
1.20338916e+06 	 6.345074e+01 	 1.868937e+08 	
1.20342117e+06 	 5.711129e+01 	 1.823182e+08 	
1.20345318e+06 	 5.138776e+01 	 1.778530e+08 	
1.20348518e+06 	 4.622352e+01 	 1.734973e+08 	
1.20351719e+06 	 4.156671e+01 	 1.692501e+08 	
1.20354920e+06 	 3.736985e+01 	 1.651105e+08 	
1.20358121e+06 	 3.358961e+01 	 1.610774e+08 	
1.20361322e+06 	 3.018638e+01 	 1.571496e+08 	
1.20364523e+06 	 2.712408e+01 	 1.533260e+08 	
1.20367724e+06 	 2.436983e+01 	 1.496053e+08 	
1.20370925e+06 	 2.189372e+01 	 1.459863e+08 	
1.20374126e+06 	 1.966856e+01 	 1.424677e+08 	
1.20377327e+06 	 1.766965e+01 	 1.390481e+08 	
1.20380528e+06 	 1.587460e+01 	 1.357259e+08 	
1.20383729e+06 	 1.426310e+01 	 1.324999e+08 	
1.20386930e+06 	 1.281678e+01 	 1.293685e+08 	
1.20390131e+06 	 1.151900e+01 	 1.263300e+08 	
1.20393519e+06 	 1.029030e+01 	 1.232129e+08 	
1.20396908e+06 	 9.195195e+00 	 1.201964e+08 	
1.20400297e+06 	 8.219303e+00 	 1.172784e+08 	
1.20403686e+06 	 7.349720e+00 	 1.144570e+08 	
1.20407074e+06 	 6.574898e+00 	 1.117302e+08 	
1.20410463e+06 	 5.884508e+00 	 1.090958e+08 	
1.20413852e+06 	 5.269319e+00 	 1.065519e+08 	
1.20417241e+06 	 4.721087e+00 	 1.040962e+08 	
1.20420629e+06 	 4.232455e+00 	 1.017266e+08 	
1.20424018e+06 	 3.796861e+00 	 9.944108e+07 	
1.20427407e+06 	 3.408456e+00 	 9.723739e+07 	
1.20430795e+06 	 3.062032e+00 	 9.511341e+07 	
1.20434184e+06 	 2.752950e+00 	 9.306696e+07 	
1.20437573e+06 	 2.477082e+00 	 9.109590e+07 	
1.20440962e+06 	 2.230757e+00 	 8.919806e+07 	
1.20445139e+06 	 1.962968e+00 	 8.695627e+07 	
1.20449316e+06 	 1.729766e+00 	 8.481849e+07 	
1.20453493e+06 	 1.526513e+00 	 8.278079e+07 	
1.20457670e+06 	 1.349200e+00 	 8.083924e+07 	
1.20461847e+06 	 1.194364e+00 	 7.899000e+07 	
1.20466024e+06 	 1.059014e+00 	 7.722927e+07 	
1.20470202e+06 	 9.405643e-01 	 7.555335e+07 	
1.20474379e+06 	 8.367835e-01 	 7.395858e+07 	
1.20478556e+06 	 7.457428e-01 	 7.244141e+07 	
1.20482733e+06 	 6.657756e-01 	 7.099837e+07 	
1.20486910e+06 	 5.954414e-01 	 6.962607e+07 	
1.20492301e+06 	 5.169069e-01 	 6.795422e+07 	
1.20497692e+06 	 4.500867e-01 	 6.638795e+07 	
1.20503083e+06 	 3.930945e-01 	 6.492072e+07 	
1.20508474e+06 	 3.443631e-01 	 6.354632e+07 	
1.20513865e+06 	 3.025885e-01 	 6.225882e+07 	
1.20519256e+06 	 2.666846e-01 	 6.105257e+07 	
1.20524647e+06 	 2.357452e-01 	 5.992226e+07 	
1.20531610e+06 	 2.019194e-01 	 5.856670e+07 	
1.20538572e+06 	 1.737886e-01 	 5.731928e+07 	
1.20545535e+06 	 1.502896e-01 	 5.617061e+07 	
1.20552497e+06 	 1.305728e-01 	 5.511209e+07 	
1.20559459e+06 	 1.139564e-01 	 5.413581e+07 	
1.20568459e+06 	 9.619245e-02 	 5.298399e+07 	
1.20577459e+06 	 8.177101e-02 	 5.194346e+07 	
1.20586459e+06 	 6.998123e-02 	 5.100170e+07 	
1.20595459e+06 	 6.027734e-02 	 5.014765e+07 	
1.20606560e+06 	 5.056326e-02 	 4.920062e+07 	
1.20617662e+06 	 4.278727e-02 	 4.835634e+07 	
1.20628763e+06 	 3.650533e-02 	 4.760118e+07 	
1.20642630e+06 	 3.026080e-02 	 4.676553e+07 	
1.20656497e+06 	 2.536271e-02 	 4.603178e+07 	
1.20670364e+06 	 2.147427e-02 	 4.538422e+07 	
1.20687804e+06 	 1.764959e-02 	 4.467241e+07 	
1.20705243e+06 	 1.470051e-02 	 4.405567e+07 	
1.20722683e+06 	 1.239218e-02 	 4.351743e+07 	
1.20744908e+06 	 1.012481e-02 	 4.292465e+07 	
1.20767133e+06 	 8.402217e-03 	 4.241670e+07 	
1.20789358e+06 	 7.069654e-03 	 4.197724e+07 	
1.20818168e+06 	 5.754899e-03 	 4.148919e+07 	
1.20846979e+06 	 4.769184e-03 	 4.107446e+07 	
1.20875789e+06 	 4.014359e-03 	 4.071771e+07 	
1.20915421e+06 	 3.237660e-03 	 4.030109e+07 	
1.20955053e+06 	 2.668862e-03 	 3.995099e+07 	
1.20994684e+06 	 2.241292e-03 	 3.965204e+07 	
1.21039541e+06 	 1.875025e-03 	 3.936156e+07 	
1.21084398e+06 	 1.596277e-03 	 3.911087e+07 	
1.21129255e+06 	 1.379569e-03 	 3.889154e+07 	
1.21195061e+06 	 1.139848e-03 	 3.861387e+07 	
1.21260867e+06 	 9.638951e-04 	 3.837648e+07 	
1.21326673e+06 	 8.310577e-04 	 3.816972e+07 	
1.21418303e+06 	 6.943479e-04 	 3.792034e+07 	
1.21509933e+06 	 5.951740e-04 	 3.770467e+07 	
1.21628592e+06 	 5.026055e-04 	 3.746197e+07 	
1.21747252e+06 	 4.363018e-04 	 3.724957e+07 	
1.21865911e+06 	 3.871673e-04 	 3.705951e+07 	
1.22035463e+06 	 3.363537e-04 	 3.681628e+07 	
1.22205016e+06 	 3.003295e-04 	 3.659731e+07 	
1.22374568e+06 	 2.738410e-04 	 3.639588e+07 	
1.22636809e+06 	 2.447849e-04 	 3.610888e+07 	
1.22785937e+06 	 2.325600e-04 	 3.595545e+07 	
1.23108672e+06 	 2.128383e-04 	 3.564047e+07 	
1.23367290e+06 	 2.014305e-04 	 3.540037e+07 	
1.23796806e+06 	 1.875819e-04 	 3.501791e+07 	
1.24118512e+06 	 1.797717e-04 	 3.474084e+07 	
1.24731537e+06 	 1.682267e-04 	 3.422793e+07 	
1.25029714e+06 	 1.635652e-04 	 3.398380e+07 	
1.25820771e+06 	 1.528331e-04 	 3.334885e+07 	
1.26011667e+06 	 1.504799e-04 	 3.319801e+07 	
1.26711667e+06 	 1.423601e-04 	 3.265183e+07 	
1.27411667e+06 	 1.348388e-04 	 3.211580e+07 	
1.27878333e+06 	 1.300834e-04 	 3.176375e+07 	
1.28578333e+06 	 1.232821e-04 	 3.124331e+07 	
1.29278333e+06 	 1.168393e-04 	 3.073179e+07 	
1.29453333e+06 	 1.152809e-04 	 3.060527e+07 	
1.30153333e+06 	 1.092453e-04 	 3.010453e+07 	
1.30433333e+06 	 1.069166e-04 	 2.990659e+07 	
1.30783333e+06 	 1.040717e-04 	 2.966104e+07 	
1.31250000e+06 	 1.003890e-04 	 2.933683e+07 	
1.31600000e+06 	 9.770729e-05 	 2.909603e+07 	
1.32066667e+06 	 9.423493e-05 	 2.877806e+07 	
1.32766667e+06 	 8.923896e-05 	 2.830766e+07 	
1.33466667e+06 	 8.448551e-05 	 2.784494e+07 	
1.33933333e+06 	 8.144471e-05 	 2.754066e+07 	
1.34400000e+06 	 7.850202e-05 	 2.723966e+07 	
1.34866667e+06 	 7.565383e-05 	 2.694192e+07 	
1.35333333e+06 	 7.289672e-05 	 2.664737e+07 	
1.35800000e+06 	 7.022723e-05 	 2.635597e+07 	
1.36500000e+06 	 6.638046e-05 	 2.592469e+07 	
1.37200000e+06 	 6.271333e-05 	 2.550025e+07 	
1.37900000e+06 	 5.921591e-05 	 2.508250e+07 	
1.38600000e+06 	 5.587884e-05 	 2.467132e+07 	
1.39300000e+06 	 5.269314e-05 	 2.426656e+07 	
1.40000000e+06 	 4.965033e-05 	 2.386810e+07 	
1.40025013e+06 	 4.954415e-05 	 2.385398e+07 	
1.40050025e+06 	 4.943813e-05 	 2.383986e+07 	
1.40075038e+06 	 4.933229e-05 	 2.382575e+07 	
1.40100050e+06 	 4.922662e-05 	 2.381165e+07 	
1.40125063e+06 	 4.912112e-05 	 2.379756e+07 	
1.40150075e+06 	 4.901579e-05 	 2.378348e+07 	
1.40175088e+06 	 4.891063e-05 	 2.376940e+07 	
1.40200100e+06 	 4.880564e-05 	 2.375533e+07 	
1.40225113e+06 	 4.870082e-05 	 2.374127e+07 	
1.40250125e+06 	 4.859617e-05 	 2.372722e+07 	
1.40275138e+06 	 4.849168e-05 	 2.371318e+07 	
1.40300150e+06 	 4.838737e-05 	 2.369914e+07 	
1.40325163e+06 	 4.828322e-05 	 2.368511e+07 	
1.40350175e+06 	 4.817924e-05 	 2.367109e+07 	
1.40375188e+06 	 4.807542e-05 	 2.365708e+07 	
1.40400200e+06 	 4.797178e-05 	 2.364307e+07 	
1.40425213e+06 	 4.786830e-05 	 2.362907e+07 	
1.40450225e+06 	 4.776498e-05 	 2.361508e+07 	
1.40475238e+06 	 4.766183e-05 	 2.360110e+07 	
1.40500250e+06 	 4.755885e-05 	 2.358713e+07 	
1.40525263e+06 	 4.745603e-05 	 2.357316e+07 	
1.40550275e+06 	 4.735338e-05 	 2.355920e+07 	
1.40575288e+06 	 4.725088e-05 	 2.354525e+07 	
1.40600300e+06 	 4.714856e-05 	 2.353131e+07 	
1.40625313e+06 	 4.704639e-05 	 2.351737e+07 	
1.40650325e+06 	 4.694439e-05 	 2.350344e+07 	
1.40675338e+06 	 4.684256e-05 	 2.348952e+07 	
1.40700350e+06 	 4.674088e-05 	 2.347561e+07 	
1.40725363e+06 	 4.663937e-05 	 2.346171e+07 	
1.40750375e+06 	 4.653802e-05 	 2.344781e+07 	
1.40775388e+06 	 4.643683e-05 	 2.343392e+07 	
1.40800400e+06 	 4.633580e-05 	 2.342004e+07 	
1.40825413e+06 	 4.623494e-05 	 2.340616e+07 	
1.40850425e+06 	 4.613423e-05 	 2.339230e+07 	
1.40875438e+06 	 4.603368e-05 	 2.337844e+07 	
1.40900450e+06 	 4.593330e-05 	 2.336459e+07 	
1.40925463e+06 	 4.583307e-05 	 2.335074e+07 	
1.40950475e+06 	 4.573300e-05 	 2.333691e+07 	
1.40975488e+06 	 4.563309e-05 	 2.332308e+07 	
1.41000500e+06 	 4.553334e-05 	 2.330926e+07 	
1.41025513e+06 	 4.543375e-05 	 2.329545e+07 	
1.41050525e+06 	 4.533431e-05 	 2.328164e+07 	
1.41075538e+06 	 4.523503e-05 	 2.326785e+07 	
1.41100550e+06 	 4.513591e-05 	 2.325406e+07 	
1.41125563e+06 	 4.503695e-05 	 2.324028e+07 	
1.41150575e+06 	 4.493814e-05 	 2.322650e+07 	
1.41175588e+06 	 4.483949e-05 	 2.321273e+07 	
1.41200600e+06 	 4.474099e-05 	 2.319898e+07 	
1.41225613e+06 	 4.464265e-05 	 2.318522e+07 	
1.41250625e+06 	 4.454447e-05 	 2.317148e+07 	
1.41275638e+06 	 4.444644e-05 	 2.315774e+07 	
1.41300650e+06 	 4.434856e-05 	 2.314402e+07 	
1.41325663e+06 	 4.425084e-05 	 2.313029e+07 	
1.41350675e+06 	 4.415327e-05 	 2.311658e+07 	
1.41375688e+06 	 4.405586e-05 	 2.310287e+07 	
1.41400700e+06 	 4.395860e-05 	 2.308918e+07 	
1.41425713e+06 	 4.386149e-05 	 2.307549e+07 	
1.41450725e+06 	 4.376453e-05 	 2.306180e+07 	
1.41475738e+06 	 4.366773e-05 	 2.304813e+07 	
1.41500750e+06 	 4.357107e-05 	 2.303446e+07 	
1.41525763e+06 	 4.347457e-05 	 2.302080e+07 	
1.41550775e+06 	 4.337822e-05 	 2.300715e+07 	
1.41575788e+06 	 4.328202e-05 	 2.299350e+07 	
1.41600800e+06 	 4.318597e-05 	 2.297986e+07 	
1.41625813e+06 	 4.309008e-05 	 2.296623e+07 	
1.41650825e+06 	 4.299433e-05 	 2.295261e+07 	
1.41675838e+06 	 4.289873e-05 	 2.293899e+07 	
1.41700850e+06 	 4.280327e-05 	 2.292539e+07 	
1.41725863e+06 	 4.270797e-05 	 2.291179e+07 	
1.41750875e+06 	 4.261282e-05 	 2.289819e+07 	
1.41775888e+06 	 4.251781e-05 	 2.288461e+07 	
1.41800900e+06 	 4.242296e-05 	 2.287103e+07 	
1.41825913e+06 	 4.232825e-05 	 2.285746e+07 	
1.41850925e+06 	 4.223368e-05 	 2.284390e+07 	
1.41875938e+06 	 4.213926e-05 	 2.283034e+07 	
1.41900950e+06 	 4.204499e-05 	 2.281680e+07 	
1.41925963e+06 	 4.195087e-05 	 2.280326e+07 	
1.41950975e+06 	 4.185689e-05 	 2.278972e+07 	
1.41975988e+06 	 4.176306e-05 	 2.277620e+07 	
1.42001001e+06 	 4.166937e-05 	 2.276268e+07 	
1.42026013e+06 	 4.157583e-05 	 2.274917e+07 	
1.42051026e+06 	 4.148243e-05 	 2.273567e+07 	
1.42076038e+06 	 4.138918e-05 	 2.272217e+07 	
1.42101051e+06 	 4.129607e-05 	 2.270868e+07 	
1.42126063e+06 	 4.120310e-05 	 2.269520e+07 	
1.42151076e+06 	 4.111028e-05 	 2.268173e+07 	
1.42176088e+06 	 4.101760e-05 	 2.266826e+07 	
1.42201101e+06 	 4.092506e-05 	 2.265480e+07 	
1.42226113e+06 	 4.083266e-05 	 2.264135e+07 	
1.42251126e+06 	 4.074041e-05 	 2.262791e+07 	
1.42276138e+06 	 4.064830e-05 	 2.261447e+07 	
1.42301151e+06 	 4.055633e-05 	 2.260104e+07 	
1.42326163e+06 	 4.046450e-05 	 2.258762e+07 	
1.42351176e+06 	 4.037281e-05 	 2.257421e+07 	
1.42376188e+06 	 4.028126e-05 	 2.256080e+07 	
1.42401201e+06 	 4.018986e-05 	 2.254740e+07 	
1.42426213e+06 	 4.009859e-05 	 2.253401e+07 	
1.42451226e+06 	 4.000746e-05 	 2.252063e+07 	
1.42476238e+06 	 3.991648e-05 	 2.250725e+07 	
1.42501251e+06 	 3.982563e-05 	 2.249388e+07 	
1.42526263e+06 	 3.973492e-05 	 2.248052e+07 	
1.42551276e+06 	 3.964434e-05 	 2.246716e+07 	
1.42576288e+06 	 3.955391e-05 	 2.245382e+07 	
1.42601301e+06 	 3.946361e-05 	 2.244047e+07 	
1.42626313e+06 	 3.937345e-05 	 2.242714e+07 	
1.42651326e+06 	 3.928343e-05 	 2.241382e+07 	
1.42676338e+06 	 3.919355e-05 	 2.240050e+07 	
1.42701351e+06 	 3.910380e-05 	 2.238719e+07 	
1.42726363e+06 	 3.901419e-05 	 2.237388e+07 	
1.42751376e+06 	 3.892471e-05 	 2.236059e+07 	
1.42776388e+06 	 3.883537e-05 	 2.234730e+07 	
1.42801401e+06 	 3.874616e-05 	 2.233402e+07 	
1.42826413e+06 	 3.865709e-05 	 2.232074e+07 	
1.42851426e+06 	 3.856816e-05 	 2.230747e+07 	
1.42876438e+06 	 3.847936e-05 	 2.229421e+07 	
1.42901451e+06 	 3.839069e-05 	 2.228096e+07 	
1.42926463e+06 	 3.830216e-05 	 2.226772e+07 	
1.42951476e+06 	 3.821376e-05 	 2.225448e+07 	
1.42976488e+06 	 3.812549e-05 	 2.224125e+07 	
1.43001501e+06 	 3.803735e-05 	 2.222802e+07 	
1.43026513e+06 	 3.794935e-05 	 2.221481e+07 	
1.43051526e+06 	 3.786148e-05 	 2.220160e+07 	
1.43076538e+06 	 3.777374e-05 	 2.218840e+07 	
1.43101551e+06 	 3.768614e-05 	 2.217520e+07 	
1.43126563e+06 	 3.759866e-05 	 2.216202e+07 	
1.43151576e+06 	 3.751132e-05 	 2.214884e+07 	
1.43176588e+06 	 3.742411e-05 	 2.213566e+07 	
1.43201601e+06 	 3.733702e-05 	 2.212250e+07 	
1.43226613e+06 	 3.725007e-05 	 2.210934e+07 	
1.43251626e+06 	 3.716325e-05 	 2.209619e+07 	
1.43276638e+06 	 3.707655e-05 	 2.208304e+07 	
1.43301651e+06 	 3.698999e-05 	 2.206991e+07 	
1.43326663e+06 	 3.690355e-05 	 2.205678e+07 	
1.43351676e+06 	 3.681724e-05 	 2.204366e+07 	
1.43376688e+06 	 3.673106e-05 	 2.203054e+07 	
1.43401701e+06 	 3.664501e-05 	 2.201743e+07 	
1.43426713e+06 	 3.655909e-05 	 2.200433e+07 	
1.43451726e+06 	 3.647329e-05 	 2.199124e+07 	
1.43476738e+06 	 3.638762e-05 	 2.197815e+07 	
1.43501751e+06 	 3.630208e-05 	 2.196507e+07 	
1.43526763e+06 	 3.621666e-05 	 2.195200e+07 	
1.43551776e+06 	 3.613137e-05 	 2.193894e+07 	
1.43576788e+06 	 3.604620e-05 	 2.192588e+07 	
1.43601801e+06 	 3.596116e-05 	 2.191283e+07 	
1.43626813e+06 	 3.587625e-05 	 2.189979e+07 	
1.43651826e+06 	 3.579146e-05 	 2.188675e+07 	
1.43676838e+06 	 3.570679e-05 	 2.187372e+07 	
1.43701851e+06 	 3.562225e-05 	 2.186070e+07 	
1.43726863e+06 	 3.553784e-05 	 2.184768e+07 	
1.43751876e+06 	 3.545354e-05 	 2.183468e+07 	
1.43776888e+06 	 3.537117e-05 	 2.182165e+07 	
1.43801901e+06 	 3.528718e-05 	 2.180866e+07 	
1.43826913e+06 	 3.520330e-05 	 2.179567e+07 	
1.43851926e+06 	 3.511956e-05 	 2.178269e+07 	
1.43876938e+06 	 3.503593e-05 	 2.176972e+07 	
1.43901951e+06 	 3.495243e-05 	 2.175675e+07 	
1.43926963e+06 	 3.486905e-05 	 2.174380e+07 	
1.43951976e+06 	 3.478579e-05 	 2.173084e+07 	
1.43976988e+06 	 3.470266e-05 	 2.171790e+07 	
1.44002001e+06 	 3.461965e-05 	 2.170496e+07 	
1.44027014e+06 	 3.453676e-05 	 2.169203e+07 	
1.44052026e+06 	 3.445400e-05 	 2.167911e+07 	
1.44077039e+06 	 3.437135e-05 	 2.166619e+07 	
1.44102051e+06 	 3.428883e-05 	 2.165328e+07 	
1.44127064e+06 	 3.420642e-05 	 2.164038e+07 	
1.44152076e+06 	 3.412414e-05 	 2.162749e+07 	
1.44177089e+06 	 3.404198e-05 	 2.161460e+07 	
1.44202101e+06 	 3.395994e-05 	 2.160172e+07 	
1.44227114e+06 	 3.387802e-05 	 2.158884e+07 	
1.44252126e+06 	 3.379622e-05 	 2.157598e+07 	
1.44277139e+06 	 3.371454e-05 	 2.156312e+07 	
1.44302151e+06 	 3.363298e-05 	 2.155027e+07 	
1.44327164e+06 	 3.355154e-05 	 2.153742e+07 	
1.44352176e+06 	 3.347021e-05 	 2.152458e+07 	
1.44377189e+06 	 3.338729e-05 	 2.151177e+07 	
1.44402201e+06 	 3.330616e-05 	 2.149895e+07 	
1.44427214e+06 	 3.322514e-05 	 2.148613e+07 	
1.44452226e+06 	 3.314424e-05 	 2.147332e+07 	
1.44477239e+06 	 3.306346e-05 	 2.146052e+07 	
1.44502251e+06 	 3.298279e-05 	 2.144772e+07 	
1.44527264e+06 	 3.290224e-05 	 2.143493e+07 	
1.44552276e+06 	 3.282181e-05 	 2.142215e+07 	
1.44577289e+06 	 3.274149e-05 	 2.140938e+07 	
1.44602301e+06 	 3.266128e-05 	 2.139661e+07 	
1.44627314e+06 	 3.258119e-05 	 2.138385e+07 	
1.44652326e+06 	 3.250122e-05 	 2.137109e+07 	
1.44677339e+06 	 3.242136e-05 	 2.135834e+07 	
1.44702351e+06 	 3.234161e-05 	 2.134560e+07 	
1.44727364e+06 	 3.226198e-05 	 2.133287e+07 	
1.44752376e+06 	 3.218246e-05 	 2.132014e+07 	
1.44777389e+06 	 3.210306e-05 	 2.130743e+07 	
1.44802401e+06 	 3.202376e-05 	 2.129471e+07 	
1.44827414e+06 	 3.194458e-05 	 2.128201e+07 	
1.44852426e+06 	 3.186552e-05 	 2.126931e+07 	
1.44877439e+06 	 3.178656e-05 	 2.125662e+07 	
1.44902451e+06 	 3.170772e-05 	 2.124393e+07 	
1.44927464e+06 	 3.162899e-05 	 2.123125e+07 	
1.44952476e+06 	 3.154877e-05 	 2.121861e+07 	
1.44977489e+06 	 3.147022e-05 	 2.120594e+07 	
1.45002501e+06 	 3.139177e-05 	 2.119329e+07 	
1.45027514e+06 	 3.131344e-05 	 2.118064e+07 	
1.45052526e+06 	 3.123522e-05 	 2.116800e+07 	
1.45077539e+06 	 3.115711e-05 	 2.115536e+07 	
1.45102551e+06 	 3.107910e-05 	 2.114273e+07 	
1.45127564e+06 	 3.100121e-05 	 2.113011e+07 	
1.45152576e+06 	 3.092342e-05 	 2.111749e+07 	
1.45177589e+06 	 3.084574e-05 	 2.110489e+07 	
1.45202601e+06 	 3.076817e-05 	 2.109229e+07 	
1.45227614e+06 	 3.069070e-05 	 2.107969e+07 	
1.45252626e+06 	 3.061335e-05 	 2.106710e+07 	
1.45277639e+06 	 3.053610e-05 	 2.105452e+07 	
1.45302651e+06 	 3.045895e-05 	 2.104195e+07 	
1.45327664e+06 	 3.038192e-05 	 2.102938e+07 	
1.45352676e+06 	 3.030499e-05 	 2.101682e+07 	
1.45377689e+06 	 3.022816e-05 	 2.100427e+07 	
1.45402701e+06 	 3.015144e-05 	 2.099173e+07 	
1.45427714e+06 	 3.007483e-05 	 2.097919e+07 	
1.45452726e+06 	 2.999832e-05 	 2.096665e+07 	
1.45477739e+06 	 2.992191e-05 	 2.095413e+07 	
1.45502751e+06 	 2.984561e-05 	 2.094161e+07 	
1.45527764e+06 	 2.976942e-05 	 2.092910e+07 	
1.45552776e+06 	 2.969181e-05 	 2.091662e+07 	
1.45577789e+06 	 2.961579e-05 	 2.090412e+07 	
1.45602801e+06 	 2.953986e-05 	 2.089163e+07 	
1.45627814e+06 	 2.946404e-05 	 2.087915e+07 	
1.45652826e+06 	 2.938831e-05 	 2.086667e+07 	
1.45677839e+06 	 2.931269e-05 	 2.085420e+07 	
1.45702851e+06 	 2.923717e-05 	 2.084174e+07 	
1.45727864e+06 	 2.916175e-05 	 2.082928e+07 	
1.45752876e+06 	 2.908643e-05 	 2.081683e+07 	
1.45777889e+06 	 2.901122e-05 	 2.080439e+07 	
1.45802901e+06 	 2.893610e-05 	 2.079195e+07 	
1.45827914e+06 	 2.886108e-05 	 2.077952e+07 	
1.45852926e+06 	 2.878616e-05 	 2.076710e+07 	
1.45877939e+06 	 2.871134e-05 	 2.075469e+07 	
1.45902951e+06 	 2.863662e-05 	 2.074228e+07 	
1.45927964e+06 	 2.856199e-05 	 2.072988e+07 	
