r (cm)        	 rho (g/cm3) 	 T (K)       		 Linf = 3.281540e+38
1.20003937e+06 	 1.262260e+05 	 1.251489e+09 	
1.20009132e+06 	 1.176326e+05 	 1.229237e+09 	
1.20019428e+06 	 1.020262e+05 	 1.185535e+09 	
1.20029724e+06 	 8.817499e+04 	 1.142379e+09 	
1.20039812e+06 	 7.615584e+04 	 1.100644e+09 	
1.20049899e+06 	 6.553268e+04 	 1.059471e+09 	
1.20059987e+06 	 5.617582e+04 	 1.018879e+09 	
1.20068233e+06 	 4.938292e+04 	 9.861428e+08 	
1.20076479e+06 	 4.329290e+04 	 9.538206e+08 	
1.20084724e+06 	 3.784719e+04 	 9.219242e+08 	
1.20092970e+06 	 3.299069e+04 	 8.904660e+08 	
1.20101216e+06 	 2.867169e+04 	 8.594586e+08 	
1.20109170e+06 	 2.496962e+04 	 8.299893e+08 	
1.20117124e+06 	 2.168186e+04 	 8.009634e+08 	
1.20125078e+06 	 1.877038e+04 	 7.723932e+08 	
1.20133031e+06 	 1.619972e+04 	 7.442909e+08 	
1.20139644e+06 	 1.429811e+04 	 7.212912e+08 	
1.20146257e+06 	 1.259156e+04 	 6.986310e+08 	
1.20152870e+06 	 1.106347e+04 	 6.763177e+08 	
1.20159483e+06 	 9.698287e+03 	 6.543588e+08 	
1.20166096e+06 	 8.481505e+03 	 6.327617e+08 	
1.20172710e+06 	 7.399495e+03 	 6.115322e+08 	
1.20179323e+06 	 6.439780e+03 	 5.906796e+08 	
1.20185937e+06 	 5.590671e+03 	 5.702114e+08 	
1.20191424e+06 	 4.962334e+03 	 5.535256e+08 	
1.20196912e+06 	 4.396930e+03 	 5.371138e+08 	
1.20202399e+06 	 3.889088e+03 	 5.209801e+08 	
1.20207886e+06 	 3.433795e+03 	 5.051286e+08 	
1.20213374e+06 	 3.026385e+03 	 4.895632e+08 	
1.20218861e+06 	 2.662521e+03 	 4.742880e+08 	
1.20224516e+06 	 2.328886e+03 	 4.588552e+08 	
1.20230170e+06 	 2.033147e+03 	 4.437385e+08 	
1.20234816e+06 	 1.815857e+03 	 4.315568e+08 	
1.20239462e+06 	 1.619688e+03 	 4.195931e+08 	
1.20244109e+06 	 1.442844e+03 	 4.078495e+08 	
1.20248755e+06 	 1.283653e+03 	 3.963277e+08 	
1.20253401e+06 	 1.140564e+03 	 3.850295e+08 	
1.20258047e+06 	 1.012138e+03 	 3.739566e+08 	
1.20262693e+06 	 8.970419e+02 	 3.631104e+08 	
1.20267339e+06 	 7.940454e+02 	 3.524924e+08 	
1.20272165e+06 	 6.986514e+02 	 3.417056e+08 	
1.20276992e+06 	 6.139184e+02 	 3.311675e+08 	
1.20280997e+06 	 5.509289e+02 	 3.226123e+08 	
1.20285001e+06 	 4.939768e+02 	 3.142294e+08 	
1.20289006e+06 	 4.425393e+02 	 3.060194e+08 	
1.20293011e+06 	 3.961324e+02 	 2.979823e+08 	
1.20297016e+06 	 3.543088e+02 	 2.901185e+08 	
1.20301021e+06 	 3.166556e+02 	 2.824279e+08 	
1.20305026e+06 	 2.827922e+02 	 2.749105e+08 	
1.20309031e+06 	 2.523685e+02 	 2.675661e+08 	
1.20313036e+06 	 2.250628e+02 	 2.603944e+08 	
1.20317041e+06 	 2.005798e+02 	 2.533950e+08 	
1.20320602e+06 	 1.809579e+02 	 2.473144e+08 	
1.20324164e+06 	 1.631795e+02 	 2.413692e+08 	
1.20327726e+06 	 1.470832e+02 	 2.355589e+08 	
1.20331288e+06 	 1.325202e+02 	 2.298827e+08 	
1.20334850e+06 	 1.193537e+02 	 2.243401e+08 	
1.20338411e+06 	 1.074577e+02 	 2.189302e+08 	
1.20341973e+06 	 9.671672e+01 	 2.136522e+08 	
1.20345535e+06 	 8.702459e+01 	 2.085050e+08 	
1.20349097e+06 	 7.828417e+01 	 2.034878e+08 	
1.20352658e+06 	 7.040653e+01 	 1.985994e+08 	
1.20356220e+06 	 6.331038e+01 	 1.938385e+08 	
1.20359782e+06 	 5.692149e+01 	 1.892040e+08 	
1.20363344e+06 	 5.117215e+01 	 1.846945e+08 	
1.20366905e+06 	 4.600070e+01 	 1.803086e+08 	
1.20370467e+06 	 4.135099e+01 	 1.760448e+08 	
1.20374029e+06 	 3.717201e+01 	 1.719015e+08 	
1.20377591e+06 	 3.341741e+01 	 1.678772e+08 	
1.20381153e+06 	 3.004515e+01 	 1.639701e+08 	
1.20384786e+06 	 2.695916e+01 	 1.601029e+08 	
1.20388420e+06 	 2.419490e+01 	 1.563540e+08 	
1.20392054e+06 	 2.171935e+01 	 1.527214e+08 	
1.20395688e+06 	 1.950271e+01 	 1.492031e+08 	
1.20399322e+06 	 1.751815e+01 	 1.457969e+08 	
1.20402956e+06 	 1.574151e+01 	 1.425008e+08 	
1.20406590e+06 	 1.415104e+01 	 1.393125e+08 	
1.20410223e+06 	 1.272724e+01 	 1.362298e+08 	
1.20413857e+06 	 1.145257e+01 	 1.332504e+08 	
1.20417491e+06 	 1.031128e+01 	 1.303721e+08 	
1.20421125e+06 	 9.289284e+00 	 1.275925e+08 	
1.20424759e+06 	 8.373932e+00 	 1.249092e+08 	
1.20428393e+06 	 7.553906e+00 	 1.223199e+08 	
1.20432027e+06 	 6.819078e+00 	 1.198222e+08 	
1.20435661e+06 	 6.160386e+00 	 1.174137e+08 	
1.20439294e+06 	 5.569727e+00 	 1.150921e+08 	
1.20442928e+06 	 5.039862e+00 	 1.128548e+08 	
1.20447402e+06 	 4.461489e+00 	 1.102127e+08 	
1.20451876e+06 	 3.954862e+00 	 1.076904e+08 	
1.20456350e+06 	 3.510722e+00 	 1.052836e+08 	
1.20460824e+06 	 3.121020e+00 	 1.029878e+08 	
1.20465298e+06 	 2.778761e+00 	 1.007987e+08 	
1.20469772e+06 	 2.477865e+00 	 9.871205e+07 	
1.20474246e+06 	 2.213053e+00 	 9.672365e+07 	
1.20478720e+06 	 1.979736e+00 	 9.482935e+07 	
1.20483194e+06 	 1.773926e+00 	 9.302514e+07 	
1.20487668e+06 	 1.592160e+00 	 9.130705e+07 	
1.20492142e+06 	 1.431426e+00 	 8.967125e+07 	
1.20496616e+06 	 1.289103e+00 	 8.811400e+07 	
1.20501090e+06 	 1.162915e+00 	 8.663167e+07 	
1.20505564e+06 	 1.050878e+00 	 8.522074e+07 	
1.20511046e+06 	 9.303779e-01 	 8.358425e+07 	
1.20516528e+06 	 8.258182e-01 	 8.204386e+07 	
1.20522011e+06 	 7.348921e-01 	 8.059381e+07 	
1.20527493e+06 	 6.556467e-01 	 7.922865e+07 	
1.20532975e+06 	 5.864269e-01 	 7.794317e+07 	
1.20538457e+06 	 5.258282e-01 	 7.673243e+07 	
1.20545333e+06 	 4.602004e-01 	 7.531249e+07 	
1.20552208e+06 	 4.043009e-01 	 7.399417e+07 	
1.20559084e+06 	 3.565185e-01 	 7.276946e+07 	
1.20565959e+06 	 3.155299e-01 	 7.163093e+07 	
1.20572835e+06 	 2.802463e-01 	 7.057172e+07 	
1.20579710e+06 	 2.497684e-01 	 6.958551e+07 	
1.20587894e+06 	 2.187335e-01 	 6.849879e+07 	
1.20596077e+06 	 1.924327e-01 	 6.749831e+07 	
1.20604261e+06 	 1.700406e-01 	 6.657595e+07 	
1.20612444e+06 	 1.508900e-01 	 6.572442e+07 	
1.20620628e+06 	 1.344399e-01 	 6.493714e+07 	
1.20632287e+06 	 1.148144e-01 	 6.391490e+07 	
1.20643947e+06 	 9.878302e-02 	 6.299607e+07 	
1.20655606e+06 	 8.558325e-02 	 6.216768e+07 	
1.20667266e+06 	 7.463265e-02 	 6.141853e+07 	
1.20680100e+06 	 6.464634e-02 	 6.067407e+07 	
1.20692935e+06 	 5.638440e-02 	 6.000300e+07 	
1.20705769e+06 	 4.949594e-02 	 5.939596e+07 	
1.20723937e+06 	 4.157949e-02 	 5.863084e+07 	
1.20742104e+06 	 3.531230e-02 	 5.795941e+07 	
1.20760272e+06 	 3.028834e-02 	 5.736650e+07 	
1.20784117e+06 	 2.510048e-02 	 5.668718e+07 	
1.20807962e+06 	 2.108988e-02 	 5.610019e+07 	
1.20831808e+06 	 1.793889e-02 	 5.558851e+07 	
1.20863712e+06 	 1.469363e-02 	 5.499897e+07 	
1.20895616e+06 	 1.224214e-02 	 5.449650e+07 	
1.20927520e+06 	 1.035228e-02 	 5.406313e+07 	
1.20971010e+06 	 8.409295e-03 	 5.355985e+07 	
1.21014501e+06 	 6.972680e-03 	 5.313519e+07 	
1.21057991e+06 	 5.883844e-03 	 5.277135e+07 	
1.21119733e+06 	 4.743084e-03 	 5.233469e+07 	
1.21181475e+06 	 3.920924e-03 	 5.196905e+07 	
1.21243217e+06 	 3.310072e-03 	 5.165678e+07 	
1.21325207e+06 	 2.715732e-03 	 5.130404e+07 	
1.21407197e+06 	 2.285686e-03 	 5.100428e+07 	
1.21489187e+06 	 1.964712e-03 	 5.074423e+07 	
1.21571178e+06 	 1.718873e-03 	 5.051470e+07 	
1.21695111e+06 	 1.443745e-03 	 5.021158e+07 	
1.21819045e+06 	 1.245954e-03 	 4.994794e+07 	
1.21942978e+06 	 1.098953e-03 	 4.971352e+07 	
1.22128073e+06 	 9.408134e-04 	 4.940321e+07 	
1.22238866e+06 	 8.700897e-04 	 4.923473e+07 	
1.22465562e+06 	 7.617934e-04 	 4.891941e+07 	
1.22651650e+06 	 6.978112e-04 	 4.868281e+07 	
1.22948427e+06 	 6.248082e-04 	 4.833469e+07 	
1.23245204e+06 	 5.743596e-04 	 4.801195e+07 	
1.23541982e+06 	 5.378479e-04 	 4.770688e+07 	
1.23996541e+06 	 4.983018e-04 	 4.726315e+07 	
1.24364814e+06 	 4.751342e-04 	 4.691823e+07 	
1.25041381e+06 	 4.439651e-04 	 4.630723e+07 	
1.25252097e+06 	 4.361266e-04 	 4.612142e+07 	
1.26110184e+06 	 4.092709e-04 	 4.538091e+07 	
1.26588039e+06 	 3.965283e-04 	 4.497779e+07 	
1.27857854e+06 	 3.666499e-04 	 4.393261e+07 	
1.28066667e+06 	 3.621020e-04 	 4.376400e+07 	
1.28916667e+06 	 3.444316e-04 	 4.308668e+07 	
1.29766667e+06 	 3.278300e-04 	 4.242310e+07 	
1.30616667e+06 	 3.121433e-04 	 4.177270e+07 	
1.31183333e+06 	 3.021469e-04 	 4.134620e+07 	
1.32033333e+06 	 2.878206e-04 	 4.071687e+07 	
1.32883333e+06 	 2.742408e-04 	 4.009970e+07 	
1.33733333e+06 	 2.613462e-04 	 3.949432e+07 	
1.34583333e+06 	 2.491006e-04 	 3.890041e+07 	
1.35433333e+06 	 2.374685e-04 	 3.831766e+07 	
1.36283333e+06 	 2.264164e-04 	 3.774579e+07 	
1.37133333e+06 	 2.159124e-04 	 3.718451e+07 	
1.37700000e+06 	 2.092052e-04 	 3.681608e+07 	
1.38550000e+06 	 1.995389e-04 	 3.627180e+07 	
1.39400000e+06 	 1.903511e-04 	 3.573740e+07 	
1.40250000e+06 	 1.816199e-04 	 3.521265e+07 	
1.41100000e+06 	 1.733011e-04 	 3.469724e+07 	
1.41950000e+06 	 1.653908e-04 	 3.419100e+07 	
1.42800000e+06 	 1.578516e-04 	 3.369364e+07 	
1.43650000e+06 	 1.506781e-04 	 3.320499e+07 	
1.44500000e+06 	 1.438426e-04 	 3.272481e+07 	
1.45350000e+06 	 1.373242e-04 	 3.225288e+07 	
1.46200000e+06 	 1.311140e-04 	 3.178903e+07 	
1.47050000e+06 	 1.251972e-04 	 3.133307e+07 	
1.47900000e+06 	 1.195507e-04 	 3.088477e+07 	
1.48750000e+06 	 1.141663e-04 	 3.044399e+07 	
1.49600000e+06 	 1.090298e-04 	 3.001055e+07 	
1.50450000e+06 	 1.041300e-04 	 2.958427e+07 	
1.51300000e+06 	 9.945190e-05 	 2.916498e+07 	
1.52150000e+06 	 9.498536e-05 	 2.875252e+07 	
1.53000000e+06 	 9.071822e-05 	 2.834673e+07 	
1.53850000e+06 	 8.664418e-05 	 2.794749e+07 	
1.54700000e+06 	 8.274999e-05 	 2.755461e+07 	
1.55550000e+06 	 7.902895e-05 	 2.716798e+07 	
1.56400000e+06 	 7.547220e-05 	 2.678746e+07 	
1.57250000e+06 	 7.207143e-05 	 2.641290e+07 	
1.58100000e+06 	 6.881978e-05 	 2.604419e+07 	
1.58950000e+06 	 6.570853e-05 	 2.568119e+07 	
1.59800000e+06 	 6.273107e-05 	 2.532378e+07 	
1.60650000e+06 	 5.988102e-05 	 2.497184e+07 	
1.61500000e+06 	 5.715221e-05 	 2.462525e+07 	
1.62350000e+06 	 5.453849e-05 	 2.428391e+07 	
1.63200000e+06 	 5.203510e-05 	 2.394771e+07 	
1.64050000e+06 	 4.963602e-05 	 2.361654e+07 	
1.64900000e+06 	 4.733627e-05 	 2.329029e+07 	
1.65750000e+06 	 4.513102e-05 	 2.296888e+07 	
1.66600000e+06 	 4.301569e-05 	 2.265219e+07 	
1.67450000e+06 	 4.098597e-05 	 2.234014e+07 	
1.68300000e+06 	 3.903765e-05 	 2.203264e+07 	
1.70000000e+06 	 3.536947e-05 	 2.143091e+07 	
1.70050050e+06 	 3.526586e-05 	 2.141346e+07 	
1.70100100e+06 	 3.516250e-05 	 2.139602e+07 	
1.70150150e+06 	 3.505937e-05 	 2.137860e+07 	
1.70200200e+06 	 3.495648e-05 	 2.136119e+07 	
1.70250250e+06 	 3.485384e-05 	 2.134380e+07 	
1.70300300e+06 	 3.475143e-05 	 2.132642e+07 	
1.70350350e+06 	 3.464926e-05 	 2.130906e+07 	
1.70400400e+06 	 3.454733e-05 	 2.129171e+07 	
1.70450450e+06 	 3.444564e-05 	 2.127437e+07 	
1.70500501e+06 	 3.434418e-05 	 2.125706e+07 	
1.70550551e+06 	 3.424296e-05 	 2.123975e+07 	
1.70600601e+06 	 3.414197e-05 	 2.122246e+07 	
1.70650651e+06 	 3.404122e-05 	 2.120519e+07 	
1.70700701e+06 	 3.394070e-05 	 2.118793e+07 	
1.70750751e+06 	 3.384041e-05 	 2.117068e+07 	
1.70800801e+06 	 3.374035e-05 	 2.115345e+07 	
1.70850851e+06 	 3.364052e-05 	 2.113623e+07 	
1.70900901e+06 	 3.354093e-05 	 2.111903e+07 	
1.70950951e+06 	 3.344156e-05 	 2.110184e+07 	
1.71001001e+06 	 3.334242e-05 	 2.108467e+07 	
1.71051051e+06 	 3.324351e-05 	 2.106751e+07 	
1.71101101e+06 	 3.314483e-05 	 2.105037e+07 	
1.71151151e+06 	 3.304638e-05 	 2.103324e+07 	
1.71201201e+06 	 3.294815e-05 	 2.101612e+07 	
1.71251251e+06 	 3.285015e-05 	 2.099902e+07 	
1.71301301e+06 	 3.275237e-05 	 2.098193e+07 	
1.71351351e+06 	 3.265482e-05 	 2.096486e+07 	
1.71401401e+06 	 3.255749e-05 	 2.094781e+07 	
1.71451451e+06 	 3.246039e-05 	 2.093076e+07 	
1.71501502e+06 	 3.236350e-05 	 2.091373e+07 	
1.71551552e+06 	 3.226684e-05 	 2.089672e+07 	
1.71601602e+06 	 3.217040e-05 	 2.087972e+07 	
1.71651652e+06 	 3.207418e-05 	 2.086274e+07 	
1.71701702e+06 	 3.197818e-05 	 2.084576e+07 	
1.71751752e+06 	 3.188240e-05 	 2.082881e+07 	
1.71801802e+06 	 3.178684e-05 	 2.081187e+07 	
1.71851852e+06 	 3.169150e-05 	 2.079494e+07 	
1.71901902e+06 	 3.159637e-05 	 2.077802e+07 	
1.71951952e+06 	 3.150146e-05 	 2.076112e+07 	
1.72002002e+06 	 3.140677e-05 	 2.074424e+07 	
1.72052052e+06 	 3.131229e-05 	 2.072737e+07 	
1.72102102e+06 	 3.121802e-05 	 2.071051e+07 	
1.72152152e+06 	 3.112397e-05 	 2.069367e+07 	
1.72202202e+06 	 3.103014e-05 	 2.067684e+07 	
1.72252252e+06 	 3.093651e-05 	 2.066003e+07 	
1.72302302e+06 	 3.084310e-05 	 2.064322e+07 	
1.72352352e+06 	 3.074990e-05 	 2.062644e+07 	
1.72402402e+06 	 3.065691e-05 	 2.060967e+07 	
1.72452452e+06 	 3.056413e-05 	 2.059291e+07 	
1.72502503e+06 	 3.047156e-05 	 2.057617e+07 	
1.72552553e+06 	 3.037920e-05 	 2.055944e+07 	
1.72602603e+06 	 3.028704e-05 	 2.054272e+07 	
1.72652653e+06 	 3.019510e-05 	 2.052602e+07 	
1.72702703e+06 	 3.010336e-05 	 2.050933e+07 	
1.72752753e+06 	 3.001182e-05 	 2.049266e+07 	
1.72802803e+06 	 2.992049e-05 	 2.047600e+07 	
1.72852853e+06 	 2.982937e-05 	 2.045935e+07 	
1.72902903e+06 	 2.973845e-05 	 2.044272e+07 	
1.72952953e+06 	 2.964774e-05 	 2.042610e+07 	
1.73003003e+06 	 2.955722e-05 	 2.040950e+07 	
1.73053053e+06 	 2.946691e-05 	 2.039291e+07 	
1.73103103e+06 	 2.937680e-05 	 2.037633e+07 	
1.73153153e+06 	 2.928689e-05 	 2.035977e+07 	
1.73203203e+06 	 2.919719e-05 	 2.034322e+07 	
1.73253253e+06 	 2.910768e-05 	 2.032669e+07 	
1.73303303e+06 	 2.901837e-05 	 2.031017e+07 	
1.73353353e+06 	 2.892926e-05 	 2.029366e+07 	
1.73403403e+06 	 2.884034e-05 	 2.027717e+07 	
1.73453453e+06 	 2.875163e-05 	 2.026069e+07 	
1.73503504e+06 	 2.866311e-05 	 2.024422e+07 	
1.73553554e+06 	 2.857478e-05 	 2.022777e+07 	
1.73603604e+06 	 2.848666e-05 	 2.021134e+07 	
1.73653654e+06 	 2.839872e-05 	 2.019491e+07 	
1.73703704e+06 	 2.831098e-05 	 2.017850e+07 	
1.73753754e+06 	 2.822344e-05 	 2.016210e+07 	
1.73803804e+06 	 2.813608e-05 	 2.014572e+07 	
1.73853854e+06 	 2.804892e-05 	 2.012935e+07 	
1.73903904e+06 	 2.796196e-05 	 2.011300e+07 	
1.73953954e+06 	 2.787518e-05 	 2.009666e+07 	
1.74004004e+06 	 2.778859e-05 	 2.008033e+07 	
1.74054054e+06 	 2.770220e-05 	 2.006401e+07 	
1.74104104e+06 	 2.761599e-05 	 2.004771e+07 	
1.74154154e+06 	 2.752997e-05 	 2.003142e+07 	
1.74204204e+06 	 2.744414e-05 	 2.001515e+07 	
1.74254254e+06 	 2.735850e-05 	 1.999889e+07 	
1.74304304e+06 	 2.727305e-05 	 1.998264e+07 	
1.74354354e+06 	 2.718778e-05 	 1.996641e+07 	
1.74404404e+06 	 2.710269e-05 	 1.995019e+07 	
1.74454454e+06 	 2.701780e-05 	 1.993399e+07 	
1.74504505e+06 	 2.693308e-05 	 1.991779e+07 	
1.74554555e+06 	 2.684856e-05 	 1.990161e+07 	
1.74604605e+06 	 2.676421e-05 	 1.988545e+07 	
1.74654655e+06 	 2.668005e-05 	 1.986930e+07 	
1.74704705e+06 	 2.659607e-05 	 1.985316e+07 	
1.74754755e+06 	 2.651227e-05 	 1.983703e+07 	
1.74804805e+06 	 2.642866e-05 	 1.982092e+07 	
1.74854855e+06 	 2.634522e-05 	 1.980482e+07 	
1.74904905e+06 	 2.626196e-05 	 1.978874e+07 	
1.74954955e+06 	 2.617889e-05 	 1.977267e+07 	
1.75005005e+06 	 2.609599e-05 	 1.975661e+07 	
1.75055055e+06 	 2.601327e-05 	 1.974056e+07 	
1.75105105e+06 	 2.593073e-05 	 1.972453e+07 	
1.75155155e+06 	 2.584836e-05 	 1.970851e+07 	
1.75205205e+06 	 2.576618e-05 	 1.969251e+07 	
1.75255255e+06 	 2.568416e-05 	 1.967652e+07 	
1.75305305e+06 	 2.560233e-05 	 1.966054e+07 	
1.75355355e+06 	 2.552066e-05 	 1.964458e+07 	
1.75405405e+06 	 2.543917e-05 	 1.962862e+07 	
1.75455455e+06 	 2.535786e-05 	 1.961269e+07 	
1.75505506e+06 	 2.527671e-05 	 1.959676e+07 	
1.75555556e+06 	 2.519574e-05 	 1.958085e+07 	
1.75605606e+06 	 2.511494e-05 	 1.956495e+07 	
1.75655656e+06 	 2.503558e-05 	 1.954904e+07 	
1.75705706e+06 	 2.495517e-05 	 1.953317e+07 	
1.75755756e+06 	 2.487493e-05 	 1.951731e+07 	
1.75805806e+06 	 2.479487e-05 	 1.950146e+07 	
1.75855856e+06 	 2.471497e-05 	 1.948563e+07 	
1.75905906e+06 	 2.463524e-05 	 1.946981e+07 	
1.75955956e+06 	 2.455568e-05 	 1.945400e+07 	
1.76006006e+06 	 2.447630e-05 	 1.943821e+07 	
1.76056056e+06 	 2.439708e-05 	 1.942243e+07 	
1.76106106e+06 	 2.431803e-05 	 1.940666e+07 	
1.76156156e+06 	 2.423914e-05 	 1.939090e+07 	
1.76206206e+06 	 2.416043e-05 	 1.937516e+07 	
1.76256256e+06 	 2.408188e-05 	 1.935943e+07 	
1.76306306e+06 	 2.400349e-05 	 1.934372e+07 	
1.76356356e+06 	 2.392527e-05 	 1.932801e+07 	
1.76406406e+06 	 2.384722e-05 	 1.931232e+07 	
1.76456456e+06 	 2.376933e-05 	 1.929664e+07 	
1.76506507e+06 	 2.369161e-05 	 1.928098e+07 	
1.76556557e+06 	 2.361284e-05 	 1.926535e+07 	
1.76606607e+06 	 2.353540e-05 	 1.924971e+07 	
1.76656657e+06 	 2.345812e-05 	 1.923409e+07 	
1.76706707e+06 	 2.338100e-05 	 1.921848e+07 	
1.76756757e+06 	 2.330404e-05 	 1.920288e+07 	
1.76806807e+06 	 2.322725e-05 	 1.918729e+07 	
1.76856857e+06 	 2.315060e-05 	 1.917172e+07 	
1.76906907e+06 	 2.307412e-05 	 1.915616e+07 	
1.76956957e+06 	 2.299780e-05 	 1.914061e+07 	
1.77007007e+06 	 2.292163e-05 	 1.912508e+07 	
1.77057057e+06 	 2.284562e-05 	 1.910956e+07 	
1.77107107e+06 	 2.276977e-05 	 1.909405e+07 	
1.77157157e+06 	 2.269407e-05 	 1.907855e+07 	
1.77207207e+06 	 2.261853e-05 	 1.906307e+07 	
1.77257257e+06 	 2.254314e-05 	 1.904760e+07 	
1.77307307e+06 	 2.246791e-05 	 1.903214e+07 	
1.77357357e+06 	 2.239283e-05 	 1.901670e+07 	
1.77407407e+06 	 2.231790e-05 	 1.900126e+07 	
1.77457457e+06 	 2.224427e-05 	 1.898582e+07 	
1.77507508e+06 	 2.216969e-05 	 1.897042e+07 	
1.77557558e+06 	 2.209526e-05 	 1.895502e+07 	
1.77607608e+06 	 2.202099e-05 	 1.893964e+07 	
1.77657658e+06 	 2.194687e-05 	 1.892427e+07 	
1.77707708e+06 	 2.187289e-05 	 1.890891e+07 	
1.77757758e+06 	 2.179908e-05 	 1.889357e+07 	
1.77807808e+06 	 2.172541e-05 	 1.887824e+07 	
1.77857858e+06 	 2.165189e-05 	 1.886292e+07 	
1.77907908e+06 	 2.157852e-05 	 1.884761e+07 	
1.77957958e+06 	 2.150530e-05 	 1.883232e+07 	
1.78008008e+06 	 2.143224e-05 	 1.881704e+07 	
1.78058058e+06 	 2.135932e-05 	 1.880177e+07 	
1.78108108e+06 	 2.128654e-05 	 1.878652e+07 	
1.78158158e+06 	 2.121392e-05 	 1.877127e+07 	
1.78208208e+06 	 2.114144e-05 	 1.875604e+07 	
1.78258258e+06 	 2.106911e-05 	 1.874082e+07 	
1.78308308e+06 	 2.099693e-05 	 1.872562e+07 	
1.78358358e+06 	 2.092381e-05 	 1.871045e+07 	
1.78408408e+06 	 2.085188e-05 	 1.869527e+07 	
1.78458458e+06 	 2.078010e-05 	 1.868010e+07 	
1.78508509e+06 	 2.070845e-05 	 1.866495e+07 	
1.78558559e+06 	 2.063695e-05 	 1.864980e+07 	
1.78608609e+06 	 2.056560e-05 	 1.863467e+07 	
1.78658659e+06 	 2.049438e-05 	 1.861956e+07 	
1.78708709e+06 	 2.042331e-05 	 1.860445e+07 	
1.78758759e+06 	 2.035237e-05 	 1.858936e+07 	
1.78808809e+06 	 2.028158e-05 	 1.857428e+07 	
1.78858859e+06 	 2.021093e-05 	 1.855921e+07 	
1.78908909e+06 	 2.014042e-05 	 1.854416e+07 	
1.78958959e+06 	 2.007005e-05 	 1.852911e+07 	
1.79009009e+06 	 1.999981e-05 	 1.851408e+07 	
1.79059059e+06 	 1.992972e-05 	 1.849906e+07 	
1.79109109e+06 	 1.985976e-05 	 1.848406e+07 	
1.79159159e+06 	 1.978994e-05 	 1.846906e+07 	
1.79209209e+06 	 1.972026e-05 	 1.845408e+07 	
1.79259259e+06 	 1.964970e-05 	 1.843914e+07 	
1.79309309e+06 	 1.958026e-05 	 1.842418e+07 	
1.79359359e+06 	 1.951095e-05 	 1.840924e+07 	
1.79409409e+06 	 1.944177e-05 	 1.839431e+07 	
1.79459459e+06 	 1.937273e-05 	 1.837939e+07 	
1.79509510e+06 	 1.930382e-05 	 1.836448e+07 	
1.79559560e+06 	 1.923505e-05 	 1.834959e+07 	
1.79609610e+06 	 1.916641e-05 	 1.833471e+07 	
1.79659660e+06 	 1.909789e-05 	 1.831984e+07 	
1.79709710e+06 	 1.902952e-05 	 1.830498e+07 	
1.79759760e+06 	 1.896127e-05 	 1.829013e+07 	
1.79809810e+06 	 1.889315e-05 	 1.827530e+07 	
1.79859860e+06 	 1.882516e-05 	 1.826048e+07 	
1.79909910e+06 	 1.875731e-05 	 1.824567e+07 	
1.79959960e+06 	 1.868958e-05 	 1.823088e+07 	
1.80010010e+06 	 1.862198e-05 	 1.821609e+07 	
1.80060060e+06 	 1.855451e-05 	 1.820132e+07 	
1.80110110e+06 	 1.848717e-05 	 1.818656e+07 	
1.80160160e+06 	 1.841901e-05 	 1.817183e+07 	
1.80210210e+06 	 1.835189e-05 	 1.815710e+07 	
1.80260260e+06 	 1.828489e-05 	 1.814238e+07 	
1.80310310e+06 	 1.821803e-05 	 1.812767e+07 	
1.80360360e+06 	 1.815128e-05 	 1.811297e+07 	
1.80410410e+06 	 1.808466e-05 	 1.809828e+07 	
1.80460460e+06 	 1.801817e-05 	 1.808361e+07 	
1.80510511e+06 	 1.795179e-05 	 1.806895e+07 	
1.80560561e+06 	 1.788554e-05 	 1.805430e+07 	
1.80610611e+06 	 1.781942e-05 	 1.803966e+07 	
1.80660661e+06 	 1.775341e-05 	 1.802504e+07 	
