r (cm)        	 rho (g/cm3) 	 T (K)       		 Linf = 3.304952e+38
1.20004463e+06 	 1.255411e+05 	 1.253448e+09 	
1.20013639e+06 	 1.108391e+05 	 1.214392e+09 	
1.20024151e+06 	 9.577907e+04 	 1.170176e+09 	
1.20034447e+06 	 8.271482e+04 	 1.127426e+09 	
1.20044743e+06 	 7.116850e+04 	 1.085249e+09 	
1.20055040e+06 	 6.099914e+04 	 1.043667e+09 	
1.20063453e+06 	 5.361940e+04 	 1.010143e+09 	
1.20071867e+06 	 4.700344e+04 	 9.770425e+08 	
1.20080280e+06 	 4.108763e+04 	 9.443773e+08 	
1.20088694e+06 	 3.581213e+04 	 9.121602e+08 	
1.20097107e+06 	 3.112074e+04 	 8.804042e+08 	
1.20105220e+06 	 2.710076e+04 	 8.502314e+08 	
1.20113333e+06 	 2.353078e+04 	 8.205121e+08 	
1.20121447e+06 	 2.036951e+04 	 7.912590e+08 	
1.20129560e+06 	 1.757844e+04 	 7.624849e+08 	
1.20136303e+06 	 1.551445e+04 	 7.389419e+08 	
1.20143047e+06 	 1.366220e+04 	 7.157463e+08 	
1.20149790e+06 	 1.200370e+04 	 6.929059e+08 	
1.20156534e+06 	 1.052206e+04 	 6.704283e+08 	
1.20163278e+06 	 9.201521e+03 	 6.483212e+08 	
1.20170021e+06 	 8.027462e+03 	 6.265938e+08 	
1.20176764e+06 	 6.986131e+03 	 6.052525e+08 	
1.20183507e+06 	 6.064844e+03 	 5.843051e+08 	
1.20189101e+06 	 5.383237e+03 	 5.672321e+08 	
1.20194695e+06 	 4.769907e+03 	 5.504398e+08 	
1.20200289e+06 	 4.219026e+03 	 5.339326e+08 	
1.20205883e+06 	 3.725157e+03 	 5.177145e+08 	
1.20211477e+06 	 3.283236e+03 	 5.017898e+08 	
1.20217071e+06 	 2.888558e+03 	 4.861626e+08 	
1.20222835e+06 	 2.526687e+03 	 4.703755e+08 	
1.20228599e+06 	 2.205925e+03 	 4.549126e+08 	
1.20233335e+06 	 1.970246e+03 	 4.424522e+08 	
1.20238071e+06 	 1.757478e+03 	 4.302155e+08 	
1.20242808e+06 	 1.565673e+03 	 4.182045e+08 	
1.20247544e+06 	 1.393017e+03 	 4.064212e+08 	
1.20252280e+06 	 1.237826e+03 	 3.948675e+08 	
1.20257017e+06 	 1.098539e+03 	 3.835449e+08 	
1.20261753e+06 	 9.737093e+02 	 3.724552e+08 	
1.20266489e+06 	 8.620026e+02 	 3.615996e+08 	
1.20271410e+06 	 7.585352e+02 	 3.505720e+08 	
1.20276330e+06 	 6.666305e+02 	 3.397998e+08 	
1.20280415e+06 	 5.982740e+02 	 3.310508e+08 	
1.20284500e+06 	 5.364717e+02 	 3.224791e+08 	
1.20288585e+06 	 4.806553e+02 	 3.140850e+08 	
1.20292670e+06 	 4.302989e+02 	 3.058688e+08 	
1.20296755e+06 	 3.849166e+02 	 2.978307e+08 	
1.20300840e+06 	 3.440600e+02 	 2.899707e+08 	
1.20304925e+06 	 3.073157e+02 	 2.822889e+08 	
1.20309010e+06 	 2.743034e+02 	 2.747849e+08 	
1.20313095e+06 	 2.446737e+02 	 2.674586e+08 	
1.20317180e+06 	 2.181061e+02 	 2.603094e+08 	
1.20320821e+06 	 1.967713e+02 	 2.540871e+08 	
1.20324461e+06 	 1.774438e+02 	 2.480045e+08 	
1.20328102e+06 	 1.599475e+02 	 2.420612e+08 	
1.20331742e+06 	 1.441200e+02 	 2.362564e+08 	
1.20335383e+06 	 1.298119e+02 	 2.305893e+08 	
1.20339023e+06 	 1.168860e+02 	 2.250593e+08 	
1.20342663e+06 	 1.052162e+02 	 2.196653e+08 	
1.20346304e+06 	 9.468677e+01 	 2.144063e+08 	
1.20349944e+06 	 8.519194e+01 	 2.092814e+08 	
1.20353585e+06 	 7.663481e+01 	 2.042892e+08 	
1.20357225e+06 	 6.892684e+01 	 1.994286e+08 	
1.20360866e+06 	 6.198723e+01 	 1.946983e+08 	
1.20364506e+06 	 5.574227e+01 	 1.900967e+08 	
1.20368147e+06 	 5.012489e+01 	 1.856226e+08 	
1.20371787e+06 	 4.507401e+01 	 1.812742e+08 	
1.20375428e+06 	 4.053416e+01 	 1.770499e+08 	
1.20379068e+06 	 3.645497e+01 	 1.729481e+08 	
1.20382709e+06 	 3.279076e+01 	 1.689670e+08 	
1.20386456e+06 	 2.940853e+01 	 1.649928e+08 	
1.20390204e+06 	 2.638141e+01 	 1.611425e+08 	
1.20393951e+06 	 2.367261e+01 	 1.574138e+08 	
1.20397699e+06 	 2.124898e+01 	 1.538047e+08 	
1.20401447e+06 	 1.908069e+01 	 1.503128e+08 	
1.20405194e+06 	 1.714094e+01 	 1.469358e+08 	
1.20408942e+06 	 1.540564e+01 	 1.436715e+08 	
1.20412689e+06 	 1.385316e+01 	 1.405173e+08 	
1.20416437e+06 	 1.246412e+01 	 1.374708e+08 	
1.20420185e+06 	 1.122114e+01 	 1.345296e+08 	
1.20423932e+06 	 1.010865e+01 	 1.316911e+08 	
1.20427680e+06 	 9.112737e+00 	 1.289528e+08 	
1.20431428e+06 	 8.220930e+00 	 1.263123e+08 	
1.20435175e+06 	 7.422096e+00 	 1.237668e+08 	
1.20438923e+06 	 6.706280e+00 	 1.213139e+08 	
1.20442670e+06 	 6.064597e+00 	 1.189510e+08 	
1.20446418e+06 	 5.489109e+00 	 1.166754e+08 	
1.20450166e+06 	 4.972737e+00 	 1.144848e+08 	
1.20454851e+06 	 4.400801e+00 	 1.118617e+08 	
1.20459535e+06 	 3.900564e+00 	 1.093623e+08 	
1.20464220e+06 	 3.462614e+00 	 1.069816e+08 	
1.20468905e+06 	 3.078799e+00 	 1.047149e+08 	
1.20473590e+06 	 2.742057e+00 	 1.025574e+08 	
1.20478275e+06 	 2.446272e+00 	 1.005045e+08 	
1.20482960e+06 	 2.186146e+00 	 9.855145e+07 	
1.20487645e+06 	 1.957089e+00 	 9.669393e+07 	
1.20492330e+06 	 1.755124e+00 	 9.492755e+07 	
1.20497015e+06 	 1.576803e+00 	 9.324808e+07 	
1.20501700e+06 	 1.419139e+00 	 9.165141e+07 	
1.20506384e+06 	 1.279538e+00 	 9.013355e+07 	
1.20511069e+06 	 1.155748e+00 	 8.869066e+07 	
1.20515754e+06 	 1.045814e+00 	 8.731904e+07 	
1.20521522e+06 	 9.270093e-01 	 8.572302e+07 	
1.20527289e+06 	 8.239265e-01 	 8.422324e+07 	
1.20533057e+06 	 7.342736e-01 	 8.281365e+07 	
1.20538825e+06 	 6.561151e-01 	 8.148850e+07 	
1.20544592e+06 	 5.878141e-01 	 8.024238e+07 	
1.20550360e+06 	 5.279842e-01 	 7.907018e+07 	
1.20557650e+06 	 4.626687e-01 	 7.768684e+07 	
1.20564940e+06 	 4.070417e-01 	 7.640487e+07 	
1.20572230e+06 	 3.594869e-01 	 7.521591e+07 	
1.20579520e+06 	 3.186806e-01 	 7.411227e+07 	
1.20586811e+06 	 2.835361e-01 	 7.308689e+07 	
1.20594101e+06 	 2.531581e-01 	 7.213330e+07 	
1.20602823e+06 	 2.220485e-01 	 7.107844e+07 	
1.20611545e+06 	 1.956757e-01 	 7.010868e+07 	
1.20620267e+06 	 1.732104e-01 	 6.921576e+07 	
1.20628990e+06 	 1.539837e-01 	 6.839229e+07 	
1.20637712e+06 	 1.374540e-01 	 6.763162e+07 	
1.20649982e+06 	 1.179347e-01 	 6.665655e+07 	
1.20662252e+06 	 1.019251e-01 	 6.577960e+07 	
1.20674523e+06 	 8.868998e-02 	 6.498836e+07 	
1.20686793e+06 	 7.766616e-02 	 6.427216e+07 	
1.20703895e+06 	 6.518828e-02 	 6.338209e+07 	
1.20720997e+06 	 5.529582e-02 	 6.259946e+07 	
1.20738098e+06 	 4.735891e-02 	 6.190738e+07 	
1.20755200e+06 	 4.092030e-02 	 6.129203e+07 	
1.20777551e+06 	 3.421678e-02 	 6.058492e+07 	
1.20799901e+06 	 2.896641e-02 	 5.996932e+07 	
1.20822251e+06 	 2.479437e-02 	 5.942922e+07 	
1.20852044e+06 	 2.046289e-02 	 5.880513e+07 	
1.20881837e+06 	 1.715133e-02 	 5.826972e+07 	
1.20911630e+06 	 1.457242e-02 	 5.780547e+07 	
1.20953454e+06 	 1.182661e-02 	 5.724891e+07 	
1.20995278e+06 	 9.793359e-03 	 5.677939e+07 	
1.21037102e+06 	 8.250822e-03 	 5.637741e+07 	
1.21084796e+06 	 6.909961e-03 	 5.598341e+07 	
1.21132491e+06 	 5.884020e-03 	 5.564342e+07 	
1.21180186e+06 	 5.082893e-03 	 5.534619e+07 	
1.21250416e+06 	 4.190011e-03 	 5.496926e+07 	
1.21320645e+06 	 3.532571e-03 	 5.464805e+07 	
1.21401570e+06 	 2.970014e-03 	 5.432998e+07 	
1.21482494e+06 	 2.549459e-03 	 5.405439e+07 	
1.21563419e+06 	 2.226941e-03 	 5.381150e+07 	
1.21685670e+06 	 1.865744e-03 	 5.349161e+07 	
1.21807921e+06 	 1.605736e-03 	 5.321411e+07 	
1.21930172e+06 	 1.412296e-03 	 5.296804e+07 	
1.22112438e+06 	 1.204291e-03 	 5.264398e+07 	
1.22221773e+06 	 1.110966e-03 	 5.246821e+07 	
1.22444702e+06 	 9.684001e-04 	 5.214154e+07 	
1.22627947e+06 	 8.839439e-04 	 5.189706e+07 	
1.22919479e+06 	 7.877124e-04 	 5.153970e+07 	
1.23156469e+06 	 7.319676e-04 	 5.126992e+07 	
1.23541105e+06 	 6.677181e-04 	 5.085937e+07 	
1.23849582e+06 	 6.310870e-04 	 5.054748e+07 	
1.24360069e+06 	 5.875813e-04 	 5.005431e+07 	
1.24774702e+06 	 5.617798e-04 	 4.966859e+07 	
1.25519286e+06 	 5.270541e-04 	 4.899849e+07 	
1.25887069e+06 	 5.131492e-04 	 4.867552e+07 	
1.26862024e+06 	 4.817857e-04 	 4.783876e+07 	
1.27548499e+06 	 4.625428e-04 	 4.726375e+07 	
1.28064746e+06 	 4.490290e-04 	 4.683814e+07 	
1.28580994e+06 	 4.361394e-04 	 4.641801e+07 	
1.28910209e+06 	 4.281959e-04 	 4.615285e+07 	
1.29000000e+06 	 4.260471e-04 	 4.608087e+07 	
1.29900000e+06 	 4.054186e-04 	 4.536814e+07 	
1.30800000e+06 	 3.859716e-04 	 4.467032e+07 	
1.31700000e+06 	 3.675749e-04 	 4.398687e+07 	
1.32600000e+06 	 3.501613e-04 	 4.331735e+07 	
1.33200000e+06 	 3.390785e-04 	 4.287857e+07 	
1.34100000e+06 	 3.231549e-04 	 4.223136e+07 	
1.35000000e+06 	 3.080369e-04 	 4.159699e+07 	
1.35900000e+06 	 2.936993e-04 	 4.097513e+07 	
1.36800000e+06 	 2.801016e-04 	 4.036544e+07 	
1.37700000e+06 	 2.671847e-04 	 3.976756e+07 	
1.38600000e+06 	 2.549064e-04 	 3.918114e+07 	
1.39500000e+06 	 2.432440e-04 	 3.860590e+07 	
1.40400000e+06 	 2.321645e-04 	 3.804155e+07 	
1.41300000e+06 	 2.216240e-04 	 3.748776e+07 	
1.42200000e+06 	 2.116052e-04 	 3.694429e+07 	
1.43100000e+06 	 2.020721e-04 	 3.641084e+07 	
1.44000000e+06 	 1.929994e-04 	 3.588715e+07 	
1.44900000e+06 	 1.843627e-04 	 3.537297e+07 	
1.45800000e+06 	 1.761360e-04 	 3.486806e+07 	
1.46700000e+06 	 1.683025e-04 	 3.437217e+07 	
1.47600000e+06 	 1.608406e-04 	 3.388510e+07 	
1.48500000e+06 	 1.537301e-04 	 3.340661e+07 	
1.49400000e+06 	 1.469541e-04 	 3.293650e+07 	
1.50300000e+06 	 1.404910e-04 	 3.247454e+07 	
1.51200000e+06 	 1.343276e-04 	 3.202054e+07 	
1.52100000e+06 	 1.284499e-04 	 3.157432e+07 	
1.53000000e+06 	 1.228406e-04 	 3.113568e+07 	
1.53900000e+06 	 1.174856e-04 	 3.070444e+07 	
1.54800000e+06 	 1.123739e-04 	 3.028042e+07 	
1.55700000e+06 	 1.074940e-04 	 2.986347e+07 	
1.56600000e+06 	 1.028316e-04 	 2.945340e+07 	
1.57500000e+06 	 9.837766e-05 	 2.905006e+07 	
1.58400000e+06 	 9.412161e-05 	 2.865330e+07 	
1.59300000e+06 	 9.005452e-05 	 2.826296e+07 	
1.60200000e+06 	 8.616557e-05 	 2.787891e+07 	
1.61100000e+06 	 8.244636e-05 	 2.750099e+07 	
1.62000000e+06 	 7.888871e-05 	 2.712908e+07 	
1.62900000e+06 	 7.548489e-05 	 2.676303e+07 	
1.63800000e+06 	 7.222747e-05 	 2.640272e+07 	
1.64700000e+06 	 6.910933e-05 	 2.604802e+07 	
1.65600000e+06 	 6.612375e-05 	 2.569882e+07 	
1.66500000e+06 	 6.326461e-05 	 2.535498e+07 	
1.67400000e+06 	 6.052556e-05 	 2.501641e+07 	
1.68300000e+06 	 5.790105e-05 	 2.468298e+07 	
1.69200000e+06 	 5.538563e-05 	 2.435460e+07 	
1.70100000e+06 	 5.297408e-05 	 2.403114e+07 	
1.71000000e+06 	 5.066171e-05 	 2.371252e+07 	
1.71900000e+06 	 4.844351e-05 	 2.339862e+07 	
1.72800000e+06 	 4.631513e-05 	 2.308937e+07 	
1.73700000e+06 	 4.427235e-05 	 2.278465e+07 	
1.74600000e+06 	 4.231115e-05 	 2.248438e+07 	
1.75500000e+06 	 4.042767e-05 	 2.218847e+07 	
1.76400000e+06 	 3.861835e-05 	 2.189683e+07 	
1.77300000e+06 	 3.687963e-05 	 2.160938e+07 	
1.78200000e+06 	 3.520819e-05 	 2.132604e+07 	
1.80000000e+06 	 3.205459e-05 	 2.077138e+07 	
1.80050050e+06 	 3.197033e-05 	 2.075618e+07 	
1.80100100e+06 	 3.188626e-05 	 2.074099e+07 	
1.80150150e+06 	 3.180236e-05 	 2.072582e+07 	
1.80200200e+06 	 3.171864e-05 	 2.071066e+07 	
1.80250250e+06 	 3.163510e-05 	 2.069551e+07 	
1.80300300e+06 	 3.155174e-05 	 2.068037e+07 	
1.80350350e+06 	 3.146856e-05 	 2.066524e+07 	
1.80400400e+06 	 3.138555e-05 	 2.065013e+07 	
1.80450450e+06 	 3.130272e-05 	 2.063502e+07 	
1.80500501e+06 	 3.122006e-05 	 2.061993e+07 	
1.80550551e+06 	 3.113758e-05 	 2.060485e+07 	
1.80600601e+06 	 3.105527e-05 	 2.058979e+07 	
1.80650651e+06 	 3.097314e-05 	 2.057473e+07 	
1.80700701e+06 	 3.089118e-05 	 2.055969e+07 	
1.80750751e+06 	 3.080939e-05 	 2.054465e+07 	
1.80800801e+06 	 3.072777e-05 	 2.052963e+07 	
1.80850851e+06 	 3.064633e-05 	 2.051463e+07 	
1.80900901e+06 	 3.056506e-05 	 2.049963e+07 	
1.80950951e+06 	 3.048396e-05 	 2.048464e+07 	
1.81001001e+06 	 3.040303e-05 	 2.046967e+07 	
1.81051051e+06 	 3.032227e-05 	 2.045471e+07 	
1.81101101e+06 	 3.024168e-05 	 2.043976e+07 	
1.81151151e+06 	 3.016126e-05 	 2.042482e+07 	
1.81201201e+06 	 3.008101e-05 	 2.040990e+07 	
1.81251251e+06 	 3.000093e-05 	 2.039498e+07 	
1.81301301e+06 	 2.992101e-05 	 2.038008e+07 	
1.81351351e+06 	 2.984127e-05 	 2.036519e+07 	
1.81401401e+06 	 2.976169e-05 	 2.035031e+07 	
1.81451451e+06 	 2.968227e-05 	 2.033544e+07 	
1.81501502e+06 	 2.960303e-05 	 2.032059e+07 	
1.81551552e+06 	 2.952395e-05 	 2.030574e+07 	
1.81601602e+06 	 2.944503e-05 	 2.029091e+07 	
1.81651652e+06 	 2.936628e-05 	 2.027609e+07 	
1.81701702e+06 	 2.928769e-05 	 2.026128e+07 	
1.81751752e+06 	 2.920927e-05 	 2.024648e+07 	
1.81801802e+06 	 2.913101e-05 	 2.023169e+07 	
1.81851852e+06 	 2.905292e-05 	 2.021692e+07 	
1.81901902e+06 	 2.897499e-05 	 2.020216e+07 	
1.81951952e+06 	 2.889721e-05 	 2.018740e+07 	
1.82002002e+06 	 2.881961e-05 	 2.017266e+07 	
1.82052052e+06 	 2.874216e-05 	 2.015793e+07 	
1.82102102e+06 	 2.866487e-05 	 2.014322e+07 	
1.82152152e+06 	 2.858775e-05 	 2.012851e+07 	
1.82202202e+06 	 2.851078e-05 	 2.011382e+07 	
1.82252252e+06 	 2.843398e-05 	 2.009913e+07 	
1.82302302e+06 	 2.835733e-05 	 2.008446e+07 	
1.82352352e+06 	 2.828084e-05 	 2.006980e+07 	
1.82402402e+06 	 2.820451e-05 	 2.005515e+07 	
1.82452452e+06 	 2.812834e-05 	 2.004052e+07 	
1.82502503e+06 	 2.805233e-05 	 2.002589e+07 	
1.82552553e+06 	 2.797647e-05 	 2.001128e+07 	
1.82602603e+06 	 2.790077e-05 	 1.999667e+07 	
1.82652653e+06 	 2.782523e-05 	 1.998208e+07 	
1.82702703e+06 	 2.774984e-05 	 1.996750e+07 	
1.82752753e+06 	 2.767460e-05 	 1.995293e+07 	
1.82802803e+06 	 2.759952e-05 	 1.993838e+07 	
1.82852853e+06 	 2.752460e-05 	 1.992383e+07 	
1.82902903e+06 	 2.744983e-05 	 1.990929e+07 	
1.82952953e+06 	 2.737521e-05 	 1.989477e+07 	
1.83003003e+06 	 2.730075e-05 	 1.988026e+07 	
1.83053053e+06 	 2.722644e-05 	 1.986576e+07 	
1.83103103e+06 	 2.715228e-05 	 1.985127e+07 	
1.83153153e+06 	 2.707827e-05 	 1.983679e+07 	
1.83203203e+06 	 2.700441e-05 	 1.982232e+07 	
1.83253253e+06 	 2.693071e-05 	 1.980787e+07 	
1.83303303e+06 	 2.685715e-05 	 1.979342e+07 	
1.83353353e+06 	 2.678375e-05 	 1.977899e+07 	
1.83403403e+06 	 2.671049e-05 	 1.976456e+07 	
1.83453453e+06 	 2.663738e-05 	 1.975015e+07 	
1.83503504e+06 	 2.656443e-05 	 1.973575e+07 	
1.83553554e+06 	 2.649162e-05 	 1.972136e+07 	
1.83603604e+06 	 2.641895e-05 	 1.970699e+07 	
1.83653654e+06 	 2.634644e-05 	 1.969262e+07 	
1.83703704e+06 	 2.627407e-05 	 1.967826e+07 	
1.83753754e+06 	 2.620185e-05 	 1.966392e+07 	
1.83803804e+06 	 2.612978e-05 	 1.964959e+07 	
1.83853854e+06 	 2.605785e-05 	 1.963526e+07 	
1.83903904e+06 	 2.598607e-05 	 1.962095e+07 	
1.83953954e+06 	 2.591443e-05 	 1.960665e+07 	
1.84004004e+06 	 2.584294e-05 	 1.959236e+07 	
1.84054054e+06 	 2.577159e-05 	 1.957809e+07 	
1.84104104e+06 	 2.570038e-05 	 1.956382e+07 	
1.84154154e+06 	 2.562932e-05 	 1.954956e+07 	
1.84204204e+06 	 2.555840e-05 	 1.953532e+07 	
1.84254254e+06 	 2.548763e-05 	 1.952108e+07 	
1.84304304e+06 	 2.541699e-05 	 1.950686e+07 	
1.84354354e+06 	 2.534650e-05 	 1.949265e+07 	
1.84404404e+06 	 2.527615e-05 	 1.947845e+07 	
1.84454454e+06 	 2.520594e-05 	 1.946426e+07 	
1.84504505e+06 	 2.513587e-05 	 1.945008e+07 	
1.84554555e+06 	 2.506594e-05 	 1.943591e+07 	
1.84604605e+06 	 2.499616e-05 	 1.942175e+07 	
1.84654655e+06 	 2.492651e-05 	 1.940761e+07 	
1.84704705e+06 	 2.485700e-05 	 1.939347e+07 	
1.84754755e+06 	 2.478763e-05 	 1.937935e+07 	
1.84804805e+06 	 2.471839e-05 	 1.936524e+07 	
1.84854855e+06 	 2.464930e-05 	 1.935113e+07 	
1.84904905e+06 	 2.458034e-05 	 1.933704e+07 	
1.84954955e+06 	 2.451152e-05 	 1.932296e+07 	
1.85005005e+06 	 2.444284e-05 	 1.930889e+07 	
1.85055055e+06 	 2.437429e-05 	 1.929483e+07 	
1.85105105e+06 	 2.430588e-05 	 1.928078e+07 	
1.85155155e+06 	 2.423760e-05 	 1.926675e+07 	
1.85205205e+06 	 2.416946e-05 	 1.925272e+07 	
1.85255255e+06 	 2.410146e-05 	 1.923870e+07 	
1.85305305e+06 	 2.403359e-05 	 1.922470e+07 	
1.85355355e+06 	 2.396585e-05 	 1.921070e+07 	
1.85405405e+06 	 2.389824e-05 	 1.919672e+07 	
1.85455455e+06 	 2.383077e-05 	 1.918275e+07 	
1.85505506e+06 	 2.376343e-05 	 1.916879e+07 	
1.85555556e+06 	 2.369623e-05 	 1.915483e+07 	
1.85605606e+06 	 2.362915e-05 	 1.914089e+07 	
1.85655656e+06 	 2.356221e-05 	 1.912696e+07 	
1.85705706e+06 	 2.349540e-05 	 1.911305e+07 	
1.85755756e+06 	 2.342872e-05 	 1.909914e+07 	
1.85805806e+06 	 2.336217e-05 	 1.908524e+07 	
1.85855856e+06 	 2.329575e-05 	 1.907135e+07 	
1.85905906e+06 	 2.322945e-05 	 1.905748e+07 	
1.85955956e+06 	 2.316329e-05 	 1.904361e+07 	
1.86006006e+06 	 2.309726e-05 	 1.902976e+07 	
1.86056056e+06 	 2.303135e-05 	 1.901591e+07 	
1.86106106e+06 	 2.296557e-05 	 1.900208e+07 	
1.86156156e+06 	 2.289992e-05 	 1.898825e+07 	
1.86206206e+06 	 2.283440e-05 	 1.897444e+07 	
1.86256256e+06 	 2.276900e-05 	 1.896064e+07 	
1.86306306e+06 	 2.270374e-05 	 1.894685e+07 	
1.86356356e+06 	 2.263859e-05 	 1.893307e+07 	
1.86406406e+06 	 2.257474e-05 	 1.891928e+07 	
1.86456456e+06 	 2.250989e-05 	 1.890552e+07 	
1.86506507e+06 	 2.244516e-05 	 1.889177e+07 	
1.86556557e+06 	 2.238056e-05 	 1.887803e+07 	
1.86606607e+06 	 2.231608e-05 	 1.886430e+07 	
1.86656657e+06 	 2.225173e-05 	 1.885058e+07 	
1.86706707e+06 	 2.218750e-05 	 1.883687e+07 	
1.86756757e+06 	 2.212340e-05 	 1.882318e+07 	
1.86806807e+06 	 2.205942e-05 	 1.880949e+07 	
1.86856857e+06 	 2.199556e-05 	 1.879581e+07 	
1.86906907e+06 	 2.193183e-05 	 1.878215e+07 	
1.86956957e+06 	 2.186822e-05 	 1.876849e+07 	
1.87007007e+06 	 2.180474e-05 	 1.875485e+07 	
1.87057057e+06 	 2.174138e-05 	 1.874121e+07 	
1.87107107e+06 	 2.167813e-05 	 1.872759e+07 	
1.87157157e+06 	 2.161501e-05 	 1.871398e+07 	
1.87207207e+06 	 2.155202e-05 	 1.870037e+07 	
1.87257257e+06 	 2.148914e-05 	 1.868678e+07 	
1.87307307e+06 	 2.142638e-05 	 1.867320e+07 	
1.87357357e+06 	 2.136375e-05 	 1.865963e+07 	
1.87407407e+06 	 2.130014e-05 	 1.864608e+07 	
1.87457457e+06 	 2.123771e-05 	 1.863253e+07 	
1.87507508e+06 	 2.117539e-05 	 1.861899e+07 	
1.87557558e+06 	 2.111320e-05 	 1.860546e+07 	
1.87607608e+06 	 2.105112e-05 	 1.859194e+07 	
1.87657658e+06 	 2.098916e-05 	 1.857844e+07 	
1.87707708e+06 	 2.092732e-05 	 1.856494e+07 	
1.87757758e+06 	 2.086559e-05 	 1.855145e+07 	
1.87807808e+06 	 2.080398e-05 	 1.853797e+07 	
1.87857858e+06 	 2.074248e-05 	 1.852450e+07 	
1.87907908e+06 	 2.068110e-05 	 1.851104e+07 	
1.87957958e+06 	 2.061984e-05 	 1.849760e+07 	
1.88008008e+06 	 2.055869e-05 	 1.848416e+07 	
1.88058058e+06 	 2.049765e-05 	 1.847073e+07 	
1.88108108e+06 	 2.043673e-05 	 1.845732e+07 	
1.88158158e+06 	 2.037592e-05 	 1.844391e+07 	
1.88208208e+06 	 2.031522e-05 	 1.843051e+07 	
1.88258258e+06 	 2.025464e-05 	 1.841713e+07 	
1.88308308e+06 	 2.019417e-05 	 1.840375e+07 	
1.88358358e+06 	 2.013381e-05 	 1.839039e+07 	
1.88408408e+06 	 2.007459e-05 	 1.837701e+07 	
1.88458458e+06 	 2.001449e-05 	 1.836366e+07 	
1.88508509e+06 	 1.995450e-05 	 1.835033e+07 	
1.88558559e+06 	 1.989462e-05 	 1.833700e+07 	
1.88608609e+06 	 1.983486e-05 	 1.832369e+07 	
1.88658659e+06 	 1.977520e-05 	 1.831038e+07 	
1.88708709e+06 	 1.971566e-05 	 1.829709e+07 	
1.88758759e+06 	 1.965622e-05 	 1.828380e+07 	
1.88808809e+06 	 1.959690e-05 	 1.827053e+07 	
1.88858859e+06 	 1.953769e-05 	 1.825726e+07 	
1.88908909e+06 	 1.947858e-05 	 1.824401e+07 	
1.88958959e+06 	 1.941959e-05 	 1.823077e+07 	
1.89009009e+06 	 1.936070e-05 	 1.821753e+07 	
1.89059059e+06 	 1.930193e-05 	 1.820431e+07 	
1.89109109e+06 	 1.924326e-05 	 1.819109e+07 	
1.89159159e+06 	 1.918470e-05 	 1.817789e+07 	
1.89209209e+06 	 1.912624e-05 	 1.816469e+07 	
1.89259259e+06 	 1.906790e-05 	 1.815151e+07 	
1.89309309e+06 	 1.900966e-05 	 1.813834e+07 	
1.89359359e+06 	 1.895153e-05 	 1.812517e+07 	
1.89409409e+06 	 1.889254e-05 	 1.811204e+07 	
1.89459459e+06 	 1.883460e-05 	 1.809889e+07 	
1.89509510e+06 	 1.877675e-05 	 1.808576e+07 	
1.89559560e+06 	 1.871901e-05 	 1.807264e+07 	
1.89609610e+06 	 1.866138e-05 	 1.805952e+07 	
1.89659660e+06 	 1.860384e-05 	 1.804642e+07 	
1.89709710e+06 	 1.854642e-05 	 1.803333e+07 	
1.89759760e+06 	 1.848909e-05 	 1.802024e+07 	
1.89809810e+06 	 1.843187e-05 	 1.800717e+07 	
1.89859860e+06 	 1.837475e-05 	 1.799411e+07 	
1.89909910e+06 	 1.831773e-05 	 1.798105e+07 	
1.89959960e+06 	 1.826082e-05 	 1.796801e+07 	
1.90010010e+06 	 1.820400e-05 	 1.795498e+07 	
1.90060060e+06 	 1.814729e-05 	 1.794195e+07 	
1.90110110e+06 	 1.809068e-05 	 1.792894e+07 	
1.90160160e+06 	 1.803417e-05 	 1.791594e+07 	
1.90210210e+06 	 1.797776e-05 	 1.790294e+07 	
