r (cm)        	 rho (g/cm3) 	 T (K)       		 Linf = 3.476307e+38
1.19999975e+06 	 1.211411e+05 	 1.268195e+09 	
1.20000112e+06 	 1.209254e+05 	 1.267625e+09 	
1.20010236e+06 	 1.058544e+05 	 1.225801e+09 	
1.20020359e+06 	 9.238514e+04 	 1.184502e+09 	
1.20030482e+06 	 8.038139e+04 	 1.143744e+09 	
1.20040606e+06 	 6.971507e+04 	 1.103546e+09 	
1.20050579e+06 	 6.039728e+04 	 1.064505e+09 	
1.20060553e+06 	 5.215340e+04 	 1.026043e+09 	
1.20070527e+06 	 4.488284e+04 	 9.881786e+08 	
1.20078755e+06 	 3.955066e+04 	 9.574033e+08 	
1.20086984e+06 	 3.476767e+04 	 9.270582e+08 	
1.20095212e+06 	 3.048753e+04 	 8.971546e+08 	
1.20103440e+06 	 2.666677e+04 	 8.677039e+08 	
1.20111669e+06 	 2.326468e+04 	 8.387176e+08 	
1.20119858e+06 	 2.025656e+04 	 8.103397e+08 	
1.20128048e+06 	 1.759057e+04 	 7.824451e+08 	
1.20136238e+06 	 1.523420e+04 	 7.550457e+08 	
1.20142977e+06 	 1.350616e+04 	 7.328807e+08 	
1.20149715e+06 	 1.195161e+04 	 7.110656e+08 	
1.20156454e+06 	 1.055586e+04 	 6.896070e+08 	
1.20163193e+06 	 9.305205e+03 	 6.685114e+08 	
1.20169932e+06 	 8.186831e+03 	 6.477855e+08 	
1.20176670e+06 	 7.188818e+03 	 6.274357e+08 	
1.20183457e+06 	 6.294134e+03 	 6.073279e+08 	
1.20190243e+06 	 5.499792e+03 	 5.876145e+08 	
1.20197030e+06 	 4.796084e+03 	 5.683018e+08 	
1.20202654e+06 	 4.275150e+03 	 5.526046e+08 	
1.20208279e+06 	 3.805573e+03 	 5.371902e+08 	
1.20213903e+06 	 3.382947e+03 	 5.220618e+08 	
1.20219527e+06 	 3.003173e+03 	 5.072225e+08 	
1.20225152e+06 	 2.662441e+03 	 4.926755e+08 	
1.20230776e+06 	 2.357220e+03 	 4.784234e+08 	
1.20236400e+06 	 2.084243e+03 	 4.644690e+08 	
1.20242231e+06 	 1.832082e+03 	 4.503207e+08 	
1.20248061e+06 	 1.608229e+03 	 4.364974e+08 	
1.20252912e+06 	 1.441495e+03 	 4.252452e+08 	
1.20257763e+06 	 1.290878e+03 	 4.142208e+08 	
1.20262614e+06 	 1.154978e+03 	 4.034253e+08 	
1.20267465e+06 	 1.032499e+03 	 3.928596e+08 	
1.20272316e+06 	 9.222412e+02 	 3.825243e+08 	
1.20277167e+06 	 8.230975e+02 	 3.724202e+08 	
1.20282018e+06 	 7.340469e+02 	 3.625475e+08 	
1.20286869e+06 	 6.541495e+02 	 3.529067e+08 	
1.20291720e+06 	 5.825417e+02 	 3.434976e+08 	
1.20296855e+06 	 5.149059e+02 	 3.337918e+08 	
1.20301111e+06 	 4.645869e+02 	 3.259422e+08 	
1.20305367e+06 	 4.189999e+02 	 3.182704e+08 	
1.20309623e+06 	 3.777310e+02 	 3.107758e+08 	
1.20313879e+06 	 3.403983e+02 	 3.034579e+08 	
1.20318136e+06 	 3.066503e+02 	 2.963160e+08 	
1.20322392e+06 	 2.761634e+02 	 2.893493e+08 	
1.20326648e+06 	 2.486406e+02 	 2.825567e+08 	
1.20330904e+06 	 2.238091e+02 	 2.759373e+08 	
1.20335160e+06 	 2.014192e+02 	 2.694897e+08 	
1.20339416e+06 	 1.812421e+02 	 2.632128e+08 	
1.20343673e+06 	 1.630688e+02 	 2.571049e+08 	
1.20347929e+06 	 1.467084e+02 	 2.511646e+08 	
1.20352185e+06 	 1.319868e+02 	 2.453901e+08 	
1.20356441e+06 	 1.187454e+02 	 2.397796e+08 	
1.20360697e+06 	 1.068400e+02 	 2.343313e+08 	
1.20364954e+06 	 9.613954e+01 	 2.290429e+08 	
1.20369210e+06 	 8.652487e+01 	 2.239124e+08 	
1.20373530e+06 	 7.776548e+01 	 2.188641e+08 	
1.20377850e+06 	 6.991142e+01 	 2.139736e+08 	
1.20382170e+06 	 6.287037e+01 	 2.092384e+08 	
1.20386490e+06 	 5.655899e+01 	 2.046557e+08 	
1.20390810e+06 	 5.090216e+01 	 2.002229e+08 	
1.20395130e+06 	 4.583217e+01 	 1.959370e+08 	
1.20399450e+06 	 4.128809e+01 	 1.917951e+08 	
1.20403770e+06 	 3.721513e+01 	 1.877942e+08 	
1.20408090e+06 	 3.356405e+01 	 1.839313e+08 	
1.20412410e+06 	 3.029064e+01 	 1.802032e+08 	
1.20416730e+06 	 2.735525e+01 	 1.766067e+08 	
1.20421050e+06 	 2.472230e+01 	 1.731385e+08 	
1.20425370e+06 	 2.235993e+01 	 1.697956e+08 	
1.20429690e+06 	 2.023961e+01 	 1.665744e+08 	
1.20434010e+06 	 1.833580e+01 	 1.634719e+08 	
1.20438330e+06 	 1.662564e+01 	 1.604845e+08 	
1.20442650e+06 	 1.508871e+01 	 1.576090e+08 	
1.20446970e+06 	 1.370675e+01 	 1.548422e+08 	
1.20451290e+06 	 1.246344e+01 	 1.521805e+08 	
1.20456188e+06 	 1.120325e+01 	 1.492862e+08 	
1.20461085e+06 	 1.008373e+01 	 1.465182e+08 	
1.20465983e+06 	 9.088306e+00 	 1.438717e+08 	
1.20470881e+06 	 8.202417e+00 	 1.413421e+08 	
1.20475778e+06 	 7.413245e+00 	 1.389248e+08 	
1.20480676e+06 	 6.709521e+00 	 1.366153e+08 	
1.20485573e+06 	 6.081336e+00 	 1.344093e+08 	
1.20490471e+06 	 5.519972e+00 	 1.323023e+08 	
1.20496446e+06 	 4.914528e+00 	 1.298598e+08 	
1.20502421e+06 	 4.385082e+00 	 1.275511e+08 	
1.20508396e+06 	 3.921277e+00 	 1.253689e+08 	
1.20514371e+06 	 3.514240e+00 	 1.233064e+08 	
1.20520346e+06 	 3.156364e+00 	 1.213570e+08 	
1.20526321e+06 	 2.841124e+00 	 1.195142e+08 	
1.20532296e+06 	 2.562912e+00 	 1.177720e+08 	
1.20538271e+06 	 2.316912e+00 	 1.161247e+08 	
1.20544246e+06 	 2.098974e+00 	 1.145666e+08 	
1.20550221e+06 	 1.905524e+00 	 1.130927e+08 	
1.20556196e+06 	 1.733480e+00 	 1.116978e+08 	
1.20562171e+06 	 1.580178e+00 	 1.103774e+08 	
1.20568146e+06 	 1.443313e+00 	 1.091270e+08 	
1.20575845e+06 	 1.287999e+00 	 1.076122e+08 	
1.20583544e+06 	 1.153049e+00 	 1.061983e+08 	
1.20591243e+06 	 1.035429e+00 	 1.048776e+08 	
1.20598942e+06 	 9.325987e-01 	 1.036429e+08 	
1.20606641e+06 	 8.424264e-01 	 1.024876e+08 	
1.20614340e+06 	 7.631201e-01 	 1.014057e+08 	
1.20622039e+06 	 6.931678e-01 	 1.003915e+08 	
1.20631841e+06 	 6.156418e-01 	 9.919018e+07 	
1.20641644e+06 	 5.490301e-01 	 9.808081e+07 	
1.20651446e+06 	 4.915471e-01 	 9.705470e+07 	
1.20661249e+06 	 4.417331e-01 	 9.610409e+07 	
1.20671051e+06 	 3.983894e-01 	 9.522204e+07 	
1.20680854e+06 	 3.605278e-01 	 9.440228e+07 	
1.20693337e+06 	 3.189705e-01 	 9.343975e+07 	
1.20705821e+06 	 2.836133e-01 	 9.255895e+07 	
1.20718304e+06 	 2.533624e-01 	 9.175093e+07 	
1.20730787e+06 	 2.273425e-01 	 9.100787e+07 	
1.20743270e+06 	 2.048481e-01 	 9.032292e+07 	
1.20755754e+06 	 1.853079e-01 	 8.969007e+07 	
1.20773632e+06 	 1.615574e-01 	 8.886405e+07 	
1.20791511e+06 	 1.418449e-01 	 8.812085e+07 	
1.20809390e+06 	 1.253485e-01 	 8.744934e+07 	
1.20827269e+06 	 1.114372e-01 	 8.684014e+07 	
1.20848657e+06 	 9.751465e-02 	 8.618225e+07 	
1.20870044e+06 	 8.595430e-02 	 8.559097e+07 	
1.20891432e+06 	 7.627108e-02 	 8.505697e+07 	
1.20912820e+06 	 6.809443e-02 	 8.457248e+07 	
1.20943893e+06 	 5.832760e-02 	 8.394376e+07 	
1.20974966e+06 	 5.049479e-02 	 8.338994e+07 	
1.21006039e+06 	 4.413124e-02 	 8.289831e+07 	
1.21049188e+06 	 3.711825e-02 	 8.230032e+07 	
1.21092337e+06 	 3.167049e-02 	 8.178231e+07 	
1.21135486e+06 	 2.736361e-02 	 8.132866e+07 	
1.21184978e+06 	 2.345544e-02 	 8.087235e+07 	
1.21234470e+06 	 2.036250e-02 	 8.047152e+07 	
1.21283962e+06 	 1.787583e-02 	 8.011583e+07 	
1.21357861e+06 	 1.498443e-02 	 7.965198e+07 	
1.21431760e+06 	 1.279612e-02 	 7.925174e+07 	
1.21516569e+06 	 1.088421e-02 	 7.885288e+07 	
1.21601378e+06 	 9.421857e-03 	 7.850435e+07 	
1.21686187e+06 	 8.278765e-03 	 7.819533e+07 	
1.21821760e+06 	 6.909518e-03 	 7.776441e+07 	
1.21957333e+06 	 5.920500e-03 	 7.739207e+07 	
1.22116783e+06 	 5.072314e-03 	 7.700911e+07 	
1.22276232e+06 	 4.449474e-03 	 7.667035e+07 	
1.22435681e+06 	 3.978444e-03 	 7.636485e+07 	
1.22685271e+06 	 3.442373e-03 	 7.593603e+07 	
1.22888441e+06 	 3.126725e-03 	 7.562005e+07 	
1.23226822e+06 	 2.751580e-03 	 7.514051e+07 	
1.23421540e+06 	 2.593068e-03 	 7.488432e+07 	
1.23845301e+06 	 2.339560e-03 	 7.436223e+07 	
1.24185426e+06 	 2.196145e-03 	 7.396909e+07 	
1.24752863e+06 	 2.027613e-03 	 7.334824e+07 	
1.25195925e+06 	 1.934068e-03 	 7.288517e+07 	
1.25969232e+06 	 1.815732e-03 	 7.210806e+07 	
1.26539020e+06 	 1.750032e-03 	 7.155399e+07 	
1.27617688e+06 	 1.651669e-03 	 7.053640e+07 	
1.28456895e+06 	 1.588129e-03 	 6.976738e+07 	
1.28780313e+06 	 1.565487e-03 	 6.947560e+07 	
1.28812655e+06 	 1.563268e-03 	 6.944656e+07 	
1.28815889e+06 	 1.563047e-03 	 6.944365e+07 	
1.28816213e+06 	 1.563025e-03 	 6.944336e+07 	
1.28816245e+06 	 1.563022e-03 	 6.944333e+07 	
1.29516245e+06 	 1.516702e-03 	 6.882047e+07 	
1.29668419e+06 	 1.507010e-03 	 6.868646e+07 	
1.30835085e+06 	 1.436230e-03 	 6.767497e+07 	
1.32001752e+06 	 1.370489e-03 	 6.669023e+07 	
1.33751752e+06 	 1.279359e-03 	 6.526033e+07 	
1.34451752e+06 	 1.245108e-03 	 6.470354e+07 	
1.34548974e+06 	 1.240444e-03 	 6.462687e+07 	
1.36298974e+06 	 1.160118e-03 	 6.327388e+07 	
1.36648974e+06 	 1.144845e-03 	 6.300928e+07 	
1.36940641e+06 	 1.132308e-03 	 6.279027e+07 	
1.38690641e+06 	 1.060570e-03 	 6.150395e+07 	
1.39079530e+06 	 1.045405e-03 	 6.122440e+07 	
1.39429530e+06 	 1.031986e-03 	 6.097472e+07 	
1.39747712e+06 	 1.019973e-03 	 6.074929e+07 	
1.40065894e+06 	 1.008132e-03 	 6.052532e+07 	
1.41232560e+06 	 9.661499e-04 	 5.971640e+07 	
1.41621449e+06 	 9.526417e-04 	 5.945099e+07 	
1.41971449e+06 	 9.406844e-04 	 5.921388e+07 	
1.42321449e+06 	 9.289126e-04 	 5.897843e+07 	
1.42710338e+06 	 9.160458e-04 	 5.871875e+07 	
1.43585338e+06 	 8.878944e-04 	 5.814175e+07 	
1.43974227e+06 	 8.757289e-04 	 5.788850e+07 	
1.44324227e+06 	 8.649564e-04 	 5.766222e+07 	
1.44674227e+06 	 8.543473e-04 	 5.743750e+07 	
1.45840894e+06 	 8.201281e-04 	 5.669940e+07 	
1.46229782e+06 	 8.091022e-04 	 5.645706e+07 	
1.46618671e+06 	 7.982591e-04 	 5.621653e+07 	
1.47056171e+06 	 7.862747e-04 	 5.594807e+07 	
1.48806171e+06 	 7.405112e-04 	 5.489637e+07 	
1.49243671e+06 	 7.295907e-04 	 5.463884e+07 	
1.49632560e+06 	 7.200507e-04 	 5.441170e+07 	
1.50021449e+06 	 7.106645e-04 	 5.418621e+07 	
1.50521449e+06 	 6.988173e-04 	 5.389868e+07 	
1.51221449e+06 	 6.826394e-04 	 5.350059e+07 	
1.51610338e+06 	 6.738527e-04 	 5.328165e+07 	
1.51999227e+06 	 6.652054e-04 	 5.306427e+07 	
1.52436727e+06 	 6.556404e-04 	 5.282156e+07 	
1.54186727e+06 	 6.190411e-04 	 5.186984e+07 	
1.54686727e+06 	 6.090519e-04 	 5.160340e+07 	
1.55124227e+06 	 6.004745e-04 	 5.137222e+07 	
1.55513116e+06 	 5.929751e-04 	 5.116824e+07 	
1.56013116e+06 	 5.835018e-04 	 5.090804e+07 	
1.56713116e+06 	 5.705517e-04 	 5.054762e+07 	
1.57150616e+06 	 5.626385e-04 	 5.032461e+07 	
1.57588116e+06 	 5.548604e-04 	 5.010330e+07 	
1.58288116e+06 	 5.426890e-04 	 4.975272e+07 	
1.58871449e+06 	 5.327977e-04 	 4.946381e+07 	
1.59308949e+06 	 5.255253e-04 	 4.924904e+07 	
1.59746449e+06 	 5.183751e-04 	 4.903589e+07 	
1.60329782e+06 	 5.090267e-04 	 4.875417e+07 	
1.61029782e+06 	 4.980820e-04 	 4.841980e+07 	
1.61467282e+06 	 4.913893e-04 	 4.821283e+07 	
1.61904782e+06 	 4.848071e-04 	 4.800740e+07 	
1.62488116e+06 	 4.761987e-04 	 4.773584e+07 	
1.63188116e+06 	 4.661163e-04 	 4.741347e+07 	
1.63625616e+06 	 4.599487e-04 	 4.721390e+07 	
1.64063116e+06 	 4.538813e-04 	 4.701579e+07 	
1.65229782e+06 	 4.381768e-04 	 4.649446e+07 	
1.65729782e+06 	 4.316519e-04 	 4.627410e+07 	
1.67479782e+06 	 4.097375e-04 	 4.551686e+07 	
1.67979782e+06 	 4.037298e-04 	 4.530444e+07 	
1.68479782e+06 	 3.978302e-04 	 4.509372e+07 	
1.69179782e+06 	 3.897475e-04 	 4.480156e+07 	
1.69879782e+06 	 3.818662e-04 	 4.451264e+07 	
1.70379782e+06 	 3.763568e-04 	 4.430824e+07 	
1.70963116e+06 	 3.700520e-04 	 4.407181e+07 	
1.71838116e+06 	 3.608365e-04 	 4.372122e+07 	
1.72227005e+06 	 3.568316e-04 	 4.356695e+07 	
1.73977005e+06 	 3.394709e-04 	 4.288417e+07 	
1.75727005e+06 	 3.231373e-04 	 4.221963e+07 	
1.76310338e+06 	 3.179085e-04 	 4.200204e+07 	
1.76893671e+06 	 3.127832e-04 	 4.178637e+07 	
1.78060338e+06 	 3.028332e-04 	 4.136071e+07 	
1.78643671e+06 	 2.980042e-04 	 4.115066e+07 	
1.79518671e+06 	 2.909363e-04 	 4.083900e+07 	
1.80218671e+06 	 2.854297e-04 	 4.059258e+07 	
1.80802005e+06 	 2.809383e-04 	 4.038917e+07 	
1.81968671e+06 	 2.722124e-04 	 3.998756e+07 	
1.83718671e+06 	 2.597379e-04 	 3.939783e+07 	
1.84302005e+06 	 2.557362e-04 	 3.920455e+07 	
1.84885338e+06 	 2.518097e-04 	 3.901289e+07 	
1.86052005e+06 	 2.441756e-04 	 3.863434e+07 	
1.87802005e+06 	 2.332485e-04 	 3.807816e+07 	
1.89552005e+06 	 2.229138e-04 	 3.753552e+07 	
1.90252005e+06 	 2.189374e-04 	 3.732214e+07 	
1.91127005e+06 	 2.140878e-04 	 3.705832e+07 	
1.92002005e+06 	 2.093687e-04 	 3.679765e+07 	
1.92390894e+06 	 2.073123e-04 	 3.668280e+07 	
1.93557560e+06 	 2.012893e-04 	 3.634188e+07 	
1.95307560e+06 	 1.926502e-04 	 3.584050e+07 	
1.96182560e+06 	 1.885005e-04 	 3.559420e+07 	
1.97349227e+06 	 1.831357e-04 	 3.527024e+07 	
1.98049227e+06 	 1.800062e-04 	 3.507826e+07 	
1.98924227e+06 	 1.761854e-04 	 3.484077e+07 	
1.99799227e+06 	 1.724629e-04 	 3.460599e+07 	
2.00499227e+06 	 1.695538e-04 	 3.442008e+07 	
2.02249227e+06 	 1.625384e-04 	 3.396265e+07 	
2.03999227e+06 	 1.558732e-04 	 3.351541e+07 	
2.04582560e+06 	 1.537256e-04 	 3.336853e+07 	
2.05020060e+06 	 1.521385e-04 	 3.325909e+07 	
2.06186727e+06 	 1.480028e-04 	 3.297019e+07 	
2.07936727e+06 	 1.420522e-04 	 3.254469e+07 	
2.08811727e+06 	 1.391860e-04 	 3.233541e+07 	
2.09978394e+06 	 1.354727e-04 	 3.205986e+07 	
2.10853394e+06 	 1.327665e-04 	 3.185579e+07 	
2.12020060e+06 	 1.292594e-04 	 3.158706e+07 	
2.13186727e+06 	 1.258641e-04 	 3.132213e+07 	
2.14061727e+06 	 1.233883e-04 	 3.112587e+07 	
2.15228394e+06 	 1.201783e-04 	 3.086739e+07 	
2.15447144e+06 	 1.195878e-04 	 3.081932e+07 	
2.16613810e+06 	 1.164969e-04 	 3.056508e+07 	
2.18363810e+06 	 1.120397e-04 	 3.019025e+07 	
2.19530477e+06 	 1.091826e-04 	 2.994462e+07 	
2.20697144e+06 	 1.064131e-04 	 2.970232e+07 	
2.20826773e+06 	 1.061106e-04 	 2.967560e+07 	
2.21526773e+06 	 1.044952e-04 	 2.953200e+07 	
2.23276773e+06 	 1.005847e-04 	 2.917804e+07 	
2.25026773e+06 	 9.684944e-05 	 2.883111e+07 	
2.25901773e+06 	 9.504454e-05 	 2.866021e+07 	
2.26060864e+06 	 9.472072e-05 	 2.862932e+07 	
2.26760864e+06 	 9.331176e-05 	 2.849406e+07 	
2.28510864e+06 	 8.989833e-05 	 2.816052e+07 	
2.30260864e+06 	 8.663407e-05 	 2.783342e+07 	
2.31427531e+06 	 8.453692e-05 	 2.761885e+07 	
2.32594197e+06 	 8.250048e-05 	 2.740702e+07 	
2.34344197e+06 	 7.955515e-05 	 2.709427e+07 	
2.34484197e+06 	 7.932494e-05 	 2.706951e+07 	
2.34802379e+06 	 7.880486e-05 	 2.701337e+07 	
2.35969046e+06 	 7.693266e-05 	 2.680916e+07 	
2.37719046e+06 	 7.422329e-05 	 2.650760e+07 	
2.38885713e+06 	 7.248045e-05 	 2.630966e+07 	
2.39760713e+06 	 7.120536e-05 	 2.616280e+07 	
2.41510713e+06 	 6.873479e-05 	 2.587312e+07 	
2.43260713e+06 	 6.636599e-05 	 2.558870e+07 	
2.43400713e+06 	 6.618067e-05 	 2.556617e+07 	
2.43750713e+06 	 6.572020e-05 	 2.550998e+07 	
2.44917379e+06 	 6.421274e-05 	 2.532416e+07 	
2.46667379e+06 	 6.202809e-05 	 2.504957e+07 	
2.47834046e+06 	 6.062077e-05 	 2.486923e+07 	
2.47959046e+06 	 6.047222e-05 	 2.485003e+07 	
2.48834046e+06 	 5.944465e-05 	 2.471633e+07 	
2.50584046e+06 	 5.745113e-05 	 2.445246e+07 	
2.52334046e+06 	 5.553654e-05 	 2.419318e+07 	
2.53034046e+06 	 5.479195e-05 	 2.409072e+07 	
2.53159046e+06 	 5.466021e-05 	 2.407250e+07 	
2.54034046e+06 	 5.374870e-05 	 2.394559e+07 	
2.55784046e+06 	 5.197913e-05 	 2.369502e+07 	
2.57534046e+06 	 5.027813e-05 	 2.344871e+07 	
2.58409046e+06 	 4.945232e-05 	 2.332712e+07 	
2.58538676e+06 	 4.933133e-05 	 2.330920e+07 	
2.59413676e+06 	 4.852386e-05 	 2.318878e+07 	
2.61163676e+06 	 4.695524e-05 	 2.295098e+07 	
2.62913676e+06 	 4.544609e-05 	 2.271713e+07 	
2.64663676e+06 	 4.399370e-05 	 2.248713e+07 	
2.64809509e+06 	 4.387511e-05 	 2.246813e+07 	
2.64968600e+06 	 4.374620e-05 	 2.244744e+07 	
2.65843600e+06 	 4.304516e-05 	 2.233418e+07 	
2.67593600e+06 	 4.168228e-05 	 2.211043e+07 	
2.69343600e+06 	 4.036975e-05 	 2.189030e+07 	
2.71093600e+06 	 3.910533e-05 	 2.167370e+07 	
2.71277810e+06 	 3.897493e-05 	 2.165110e+07 	
2.72152810e+06 	 3.836250e-05 	 2.154428e+07 	
2.73902810e+06 	 3.717104e-05 	 2.133317e+07 	
2.75652810e+06 	 3.602251e-05 	 2.112540e+07 	
2.75847255e+06 	 3.589745e-05 	 2.110251e+07 	
2.76722255e+06 	 3.534095e-05 	 2.100002e+07 	
2.78472255e+06 	 3.425777e-05 	 2.079744e+07 	
2.80222255e+06 	 3.321293e-05 	 2.059799e+07 	
2.80374429e+06 	 3.312380e-05 	 2.058079e+07 	
2.80593179e+06 	 3.299620e-05 	 2.055611e+07 	
2.81468179e+06 	 3.249149e-05 	 2.045786e+07 	
2.83218179e+06 	 3.150861e-05 	 2.026361e+07 	
2.84968179e+06 	 3.055991e-05 	 2.007231e+07 	
2.85201512e+06 	 3.043591e-05 	 2.004703e+07 	
2.86076512e+06 	 2.997608e-05 	 1.995265e+07 	
2.87826512e+06 	 2.908018e-05 	 1.976603e+07 	
2.89576512e+06 	 2.821490e-05 	 1.958218e+07 	
2.89728686e+06 	 2.814104e-05 	 1.956633e+07 	
2.89978686e+06 	 2.802021e-05 	 1.954032e+07 	
2.91728686e+06 	 2.719089e-05 	 1.935982e+07 	
2.93478686e+06 	 2.638949e-05 	 1.918196e+07 	
2.94353686e+06 	 2.599891e-05 	 1.909401e+07 	
2.94645353e+06 	 2.587017e-05 	 1.906484e+07 	
2.96395353e+06 	 2.511287e-05 	 1.889128e+07 	
2.98145353e+06 	 2.438064e-05 	 1.872023e+07 	
2.99020353e+06 	 2.402361e-05 	 1.863562e+07 	
2.99520353e+06 	 2.382224e-05 	 1.858755e+07 	
3.01270353e+06 	 2.313236e-05 	 1.842084e+07 	
3.03020353e+06 	 2.246491e-05 	 1.825649e+07 	
3.03720353e+06 	 2.220401e-05 	 1.819141e+07 	
3.05470353e+06 	 2.156652e-05 	 1.803029e+07 	
3.07220353e+06 	 2.094945e-05 	 1.787142e+07 	
3.08387019e+06 	 2.054902e-05 	 1.776674e+07 	
3.10137019e+06 	 1.996427e-05 	 1.761152e+07 	
3.11887019e+06 	 1.939794e-05 	 1.745843e+07 	
3.12105769e+06 	 1.932840e-05 	 1.743944e+07 	
3.13272436e+06 	 1.896218e-05 	 1.733872e+07 	
3.15022436e+06 	 1.842714e-05 	 1.718935e+07 	
3.16772436e+06 	 1.790867e-05 	 1.704200e+07 	
3.18522436e+06 	 1.740615e-05 	 1.689663e+07 	
3.18755769e+06 	 1.734030e-05 	 1.687739e+07 	
3.19922436e+06 	 1.701520e-05 	 1.678172e+07 	
3.21672436e+06 	 1.653992e-05 	 1.663982e+07 	
3.23422436e+06 	 1.607900e-05 	 1.649978e+07 	
3.24589103e+06 	 1.577945e-05 	 1.640745e+07 	
3.26339103e+06 	 1.534133e-05 	 1.627046e+07 	
3.28089103e+06 	 1.491625e-05 	 1.613525e+07 	
3.28358333e+06 	 1.485197e-05 	 1.611460e+07 	
3.29525000e+06 	 1.457685e-05 	 1.602561e+07 	
3.31275000e+06 	 1.417429e-05 	 1.589356e+07 	
3.33025000e+06 	 1.378350e-05 	 1.576320e+07 	
3.34775000e+06 	 1.340405e-05 	 1.563450e+07 	
3.36525000e+06 	 1.303555e-05 	 1.550742e+07 	
3.36816667e+06 	 1.297516e-05 	 1.548640e+07 	
3.37983333e+06 	 1.273655e-05 	 1.540275e+07 	
3.39733333e+06 	 1.238713e-05 	 1.527859e+07 	
3.41483333e+06 	 1.204762e-05 	 1.515597e+07 	
3.43233333e+06 	 1.171767e-05 	 1.503487e+07 	
3.44983333e+06 	 1.139696e-05 	 1.491527e+07 	
3.45333333e+06 	 1.133389e-05 	 1.489152e+07 	
3.46500000e+06 	 1.112622e-05 	 1.481280e+07 	
3.50000000e+06 	 1.052596e-05 	 1.458044e+07 	
3.50025013e+06 	 1.052179e-05 	 1.457880e+07 	
3.50050025e+06 	 1.051762e-05 	 1.457716e+07 	
3.50075038e+06 	 1.051345e-05 	 1.457552e+07 	
3.50100050e+06 	 1.050929e-05 	 1.457388e+07 	
3.50125063e+06 	 1.050512e-05 	 1.457224e+07 	
3.50150075e+06 	 1.050096e-05 	 1.457060e+07 	
3.50175088e+06 	 1.049680e-05 	 1.456896e+07 	
3.50200100e+06 	 1.049264e-05 	 1.456732e+07 	
3.50225113e+06 	 1.048848e-05 	 1.456568e+07 	
3.50250125e+06 	 1.048433e-05 	 1.456405e+07 	
3.50275138e+06 	 1.048017e-05 	 1.456241e+07 	
3.50300150e+06 	 1.047602e-05 	 1.456077e+07 	
3.50325163e+06 	 1.047187e-05 	 1.455914e+07 	
3.50350175e+06 	 1.046772e-05 	 1.455750e+07 	
3.50375188e+06 	 1.046357e-05 	 1.455586e+07 	
3.50400200e+06 	 1.045943e-05 	 1.455423e+07 	
3.50425213e+06 	 1.045528e-05 	 1.455259e+07 	
3.50450225e+06 	 1.045114e-05 	 1.455096e+07 	
3.50475238e+06 	 1.044700e-05 	 1.454932e+07 	
3.50500250e+06 	 1.044286e-05 	 1.454769e+07 	
3.50525263e+06 	 1.043872e-05 	 1.454605e+07 	
3.50550275e+06 	 1.043458e-05 	 1.454442e+07 	
3.50575288e+06 	 1.043045e-05 	 1.454278e+07 	
3.50600300e+06 	 1.042632e-05 	 1.454115e+07 	
3.50625313e+06 	 1.042218e-05 	 1.453952e+07 	
3.50650325e+06 	 1.041806e-05 	 1.453788e+07 	
3.50675338e+06 	 1.041393e-05 	 1.453625e+07 	
3.50700350e+06 	 1.040980e-05 	 1.453462e+07 	
3.50725363e+06 	 1.040568e-05 	 1.453298e+07 	
3.50750375e+06 	 1.040155e-05 	 1.453135e+07 	
3.50775388e+06 	 1.039743e-05 	 1.452972e+07 	
3.50800400e+06 	 1.039331e-05 	 1.452809e+07 	
3.50825413e+06 	 1.038919e-05 	 1.452646e+07 	
3.50850425e+06 	 1.038508e-05 	 1.452483e+07 	
3.50875438e+06 	 1.038096e-05 	 1.452320e+07 	
3.50900450e+06 	 1.037685e-05 	 1.452157e+07 	
3.50925463e+06 	 1.037273e-05 	 1.451994e+07 	
