r (cm)        	 rho (g/cm3) 	 T (K)       		 Linf = 3.476306e+38
1.20005851e+06 	 1.206320e+05 	 1.267464e+09 	
1.20006420e+06 	 1.197420e+05 	 1.265099e+09 	
1.20016291e+06 	 1.051663e+05 	 1.224369e+09 	
1.20026161e+06 	 9.210278e+04 	 1.184138e+09 	
1.20036032e+06 	 8.042601e+04 	 1.144421e+09 	
1.20045903e+06 	 7.001784e+04 	 1.105235e+09 	
1.20055773e+06 	 6.076722e+04 	 1.066597e+09 	
1.20065509e+06 	 5.267569e+04 	 1.029042e+09 	
1.20075244e+06 	 4.551535e+04 	 9.920534e+08 	
1.20084979e+06 	 3.919882e+04 	 9.556496e+08 	
1.20093025e+06 	 3.455706e+04 	 9.260161e+08 	
1.20101072e+06 	 3.039297e+04 	 8.968047e+08 	
1.20109118e+06 	 2.666615e+04 	 8.680259e+08 	
1.20117164e+06 	 2.333871e+04 	 8.396906e+08 	
1.20125210e+06 	 2.037521e+04 	 8.118097e+08 	
1.20133228e+06 	 1.775120e+04 	 7.844892e+08 	
1.20141246e+06 	 1.542519e+04 	 7.576419e+08 	
1.20149264e+06 	 1.336881e+04 	 7.312789e+08 	
1.20155877e+06 	 1.185705e+04 	 7.099092e+08 	
1.20162489e+06 	 1.049699e+04 	 6.888826e+08 	
1.20169102e+06 	 9.275759e+03 	 6.682054e+08 	
1.20175715e+06 	 8.181337e+03 	 6.478838e+08 	
1.20182327e+06 	 7.202504e+03 	 6.279239e+08 	
1.20188940e+06 	 6.328820e+03 	 6.083317e+08 	
1.20195608e+06 	 5.544446e+03 	 5.889538e+08 	
1.20202276e+06 	 4.847917e+03 	 5.699617e+08 	
1.20208944e+06 	 4.230717e+03 	 5.513613e+08 	
1.20214485e+06 	 3.772511e+03 	 5.362060e+08 	
1.20220026e+06 	 3.359480e+03 	 5.213283e+08 	
1.20225568e+06 	 2.987732e+03 	 5.067310e+08 	
1.20231109e+06 	 2.653653e+03 	 4.924170e+08 	
1.20236650e+06 	 2.353884e+03 	 4.783890e+08 	
1.20242191e+06 	 2.085315e+03 	 4.646495e+08 	
1.20247733e+06 	 1.845066e+03 	 4.512010e+08 	
1.20253482e+06 	 1.622898e+03 	 4.375578e+08 	
1.20259231e+06 	 1.425627e+03 	 4.242323e+08 	
1.20263985e+06 	 1.279501e+03 	 4.134534e+08 	
1.20268740e+06 	 1.147382e+03 	 4.028940e+08 	
1.20273495e+06 	 1.028061e+03 	 3.925551e+08 	
1.20278249e+06 	 9.204151e+02 	 3.824373e+08 	
1.20283004e+06 	 8.234072e+02 	 3.725411e+08 	
1.20287758e+06 	 7.360797e+02 	 3.628671e+08 	
1.20292513e+06 	 6.575491e+02 	 3.534153e+08 	
1.20297268e+06 	 5.870024e+02 	 3.441858e+08 	
1.20302022e+06 	 5.236921e+02 	 3.351787e+08 	
1.20306777e+06 	 4.669320e+02 	 3.263934e+08 	
1.20311001e+06 	 4.214882e+02 	 3.187738e+08 	
1.20315226e+06 	 3.803127e+02 	 3.113286e+08 	
1.20319450e+06 	 3.430314e+02 	 3.040572e+08 	
1.20323674e+06 	 3.092996e+02 	 2.969589e+08 	
1.20327899e+06 	 2.787997e+02 	 2.900330e+08 	
1.20332123e+06 	 2.512400e+02 	 2.832786e+08 	
1.20336347e+06 	 2.263523e+02 	 2.766945e+08 	
1.20340572e+06 	 2.038908e+02 	 2.702797e+08 	
1.20344796e+06 	 1.836303e+02 	 2.640327e+08 	
1.20349021e+06 	 1.653647e+02 	 2.579524e+08 	
1.20353245e+06 	 1.489057e+02 	 2.520370e+08 	
1.20357469e+06 	 1.340814e+02 	 2.462850e+08 	
1.20361694e+06 	 1.207351e+02 	 2.406946e+08 	
1.20365918e+06 	 1.087240e+02 	 2.352639e+08 	
1.20370142e+06 	 9.791827e+01 	 2.299910e+08 	
1.20374367e+06 	 8.819991e+01 	 2.248737e+08 	
1.20378591e+06 	 7.946181e+01 	 2.199100e+08 	
1.20382815e+06 	 7.160684e+01 	 2.150974e+08 	
1.20387040e+06 	 6.454701e+01 	 2.104336e+08 	
1.20391448e+06 	 5.794228e+01 	 2.057233e+08 	
1.20395855e+06 	 5.203501e+01 	 2.011693e+08 	
1.20400263e+06 	 4.675181e+01 	 1.967688e+08 	
1.20404671e+06 	 4.202676e+01 	 1.925185e+08 	
1.20409079e+06 	 3.780065e+01 	 1.884153e+08 	
1.20413487e+06 	 3.402042e+01 	 1.844561e+08 	
1.20417894e+06 	 3.063850e+01 	 1.806374e+08 	
1.20422302e+06 	 2.761231e+01 	 1.769559e+08 	
1.20426710e+06 	 2.490373e+01 	 1.734082e+08 	
1.20431118e+06 	 2.247869e+01 	 1.699908e+08 	
1.20435526e+06 	 2.030675e+01 	 1.667003e+08 	
1.20439933e+06 	 1.836070e+01 	 1.635332e+08 	
1.20444341e+06 	 1.661628e+01 	 1.604859e+08 	
1.20448749e+06 	 1.505181e+01 	 1.575549e+08 	
1.20453157e+06 	 1.364799e+01 	 1.547367e+08 	
1.20457565e+06 	 1.238757e+01 	 1.520278e+08 	
1.20461973e+06 	 1.125522e+01 	 1.494247e+08 	
1.20466380e+06 	 1.023723e+01 	 1.469239e+08 	
1.20470788e+06 	 9.321429e+00 	 1.445219e+08 	
1.20476487e+06 	 8.271342e+00 	 1.415576e+08 	
1.20482186e+06 	 7.353419e+00 	 1.387457e+08 	
1.20487884e+06 	 6.549932e+00 	 1.360791e+08 	
1.20493583e+06 	 5.845612e+00 	 1.335509e+08 	
1.20499282e+06 	 5.227304e+00 	 1.311543e+08 	
1.20504980e+06 	 4.683673e+00 	 1.288828e+08 	
1.20510679e+06 	 4.204944e+00 	 1.267301e+08 	
1.20516378e+06 	 3.782686e+00 	 1.246900e+08 	
1.20522076e+06 	 3.409624e+00 	 1.227567e+08 	
1.20527775e+06 	 3.079470e+00 	 1.209245e+08 	
1.20533474e+06 	 2.786792e+00 	 1.191879e+08 	
1.20539172e+06 	 2.526889e+00 	 1.175417e+08 	
1.20544871e+06 	 2.295688e+00 	 1.159810e+08 	
1.20550570e+06 	 2.089661e+00 	 1.145010e+08 	
1.20556269e+06 	 1.905745e+00 	 1.130972e+08 	
1.20561967e+06 	 1.741279e+00 	 1.117653e+08 	
1.20569482e+06 	 1.550265e+00 	 1.101120e+08 	
1.20576997e+06 	 1.384548e+00 	 1.085680e+08 	
1.20584511e+06 	 1.240345e+00 	 1.071250e+08 	
1.20592026e+06 	 1.114489e+00 	 1.057755e+08 	
1.20599541e+06 	 1.004321e+00 	 1.045125e+08 	
1.20607055e+06 	 9.076061e-01 	 1.033296e+08 	
1.20614570e+06 	 8.224584e-01 	 1.022207e+08 	
1.20622085e+06 	 7.472845e-01 	 1.011803e+08 	
1.20631543e+06 	 6.647803e-01 	 9.996033e+07 	
1.20641001e+06 	 5.937064e-01 	 9.883166e+07 	
1.20650459e+06 	 5.322262e-01 	 9.778590e+07 	
1.20659918e+06 	 4.788319e-01 	 9.681553e+07 	
1.20669376e+06 	 4.322800e-01 	 9.591378e+07 	
1.20678834e+06 	 3.915417e-01 	 9.507455e+07 	
1.20690798e+06 	 3.470215e-01 	 9.409409e+07 	
1.20702761e+06 	 3.090322e-01 	 9.319505e+07 	
1.20714725e+06 	 2.764433e-01 	 9.236875e+07 	
1.20726689e+06 	 2.483450e-01 	 9.160758e+07 	
1.20738652e+06 	 2.240013e-01 	 9.090484e+07 	
1.20750616e+06 	 2.028131e-01 	 9.025464e+07 	
1.20767526e+06 	 1.773126e-01 	 8.941520e+07 	
1.20784437e+06 	 1.560518e-01 	 8.865775e+07 	
1.20801348e+06 	 1.381882e-01 	 8.797158e+07 	
1.20818258e+06 	 1.230700e-01 	 8.734766e+07 	
1.20838404e+06 	 1.079438e-01 	 8.667503e+07 	
1.20858550e+06 	 9.533273e-02 	 8.606898e+07 	
1.20878696e+06 	 8.473128e-02 	 8.552045e+07 	
1.20898842e+06 	 7.575067e-02 	 8.502183e+07 	
1.20927791e+06 	 6.509284e-02 	 8.438020e+07 	
1.20956739e+06 	 5.649643e-02 	 8.381319e+07 	
1.20985687e+06 	 4.947797e-02 	 8.330855e+07 	
1.21024547e+06 	 4.193315e-02 	 8.271228e+07 	
1.21063406e+06 	 3.599786e-02 	 8.219234e+07 	
1.21102266e+06 	 3.125472e-02 	 8.173457e+07 	
1.21158177e+06 	 2.595210e-02 	 8.116351e+07 	
1.21214088e+06 	 2.193506e-02 	 8.067441e+07 	
1.21270000e+06 	 1.882491e-02 	 8.024964e+07 	
1.21334250e+06 	 1.605007e-02 	 7.982428e+07 	
1.21398501e+06 	 1.389116e-02 	 7.945228e+07 	
1.21462752e+06 	 1.217989e-02 	 7.912291e+07 	
1.21561997e+06 	 1.016052e-02 	 7.867990e+07 	
1.21661242e+06 	 8.667117e-03 	 7.829851e+07 	
1.21777111e+06 	 7.368733e-03 	 7.791187e+07 	
1.21892980e+06 	 6.396752e-03 	 7.757329e+07 	
1.22008849e+06 	 5.650118e-03 	 7.727162e+07 	
1.22189571e+06 	 4.789393e-03 	 7.685669e+07 	
1.22301229e+06 	 4.386671e-03 	 7.662647e+07 	
1.22526884e+06 	 3.772386e-03 	 7.620656e+07 	
1.22713798e+06 	 3.402815e-03 	 7.589374e+07 	
1.23010485e+06 	 2.980302e-03 	 7.544388e+07 	
1.23248879e+06 	 2.736921e-03 	 7.511292e+07 	
1.23656772e+06 	 2.442853e-03 	 7.459072e+07 	
1.23864912e+06 	 2.332618e-03 	 7.434016e+07 	
1.24373696e+06 	 2.133783e-03 	 7.375962e+07 	
1.24744305e+06 	 2.030745e-03 	 7.335786e+07 	
1.25427554e+06 	 1.894407e-03 	 7.264905e+07 	
1.25900499e+06 	 1.825019e-03 	 7.217602e+07 	
1.26849453e+06 	 1.719161e-03 	 7.125740e+07 	
1.27440262e+06 	 1.666362e-03 	 7.070139e+07 	
1.28799569e+06 	 1.564197e-03 	 6.945829e+07 	
1.29722673e+06 	 1.503599e-03 	 6.863879e+07 	
1.30047271e+06 	 1.483391e-03 	 6.835494e+07 	
1.30079730e+06 	 1.481397e-03 	 6.832668e+07 	
1.30082976e+06 	 1.481198e-03 	 6.832385e+07 	
1.30083301e+06 	 1.481178e-03 	 6.832357e+07 	
1.30083333e+06 	 1.481176e-03 	 6.832354e+07 	
1.31833333e+06 	 1.379727e-03 	 6.683077e+07 	
1.33000000e+06 	 1.317540e-03 	 6.586783e+07 	
1.34750000e+06 	 1.230890e-03 	 6.446885e+07 	
1.35916667e+06 	 1.177139e-03 	 6.356516e+07 	
1.37666667e+06 	 1.101857e-03 	 6.225089e+07 	
1.38833333e+06 	 1.054988e-03 	 6.140110e+07 	
1.40000000e+06 	 1.010609e-03 	 6.057158e+07 	
1.41750000e+06 	 9.482227e-04 	 5.936367e+07 	
1.43500000e+06 	 8.905803e-04 	 5.819755e+07 	
1.44666667e+06 	 8.545915e-04 	 5.744232e+07 	
1.46416667e+06 	 8.038822e-04 	 5.634123e+07 	
1.47583333e+06 	 7.721064e-04 	 5.562752e+07 	
1.49333333e+06 	 7.273803e-04 	 5.458630e+07 	
1.51083333e+06 	 6.858016e-04 	 5.357871e+07 	
1.52250000e+06 	 6.596966e-04 	 5.292488e+07 	
1.54000000e+06 	 6.228296e-04 	 5.196994e+07 	
1.55750000e+06 	 5.884580e-04 	 5.104465e+07 	
1.56916667e+06 	 5.668677e-04 	 5.044364e+07 	
1.58666667e+06 	 5.362572e-04 	 4.956489e+07 	
1.60416667e+06 	 5.076617e-04 	 4.871244e+07 	
1.61583333e+06 	 4.896417e-04 	 4.815818e+07 	
1.63333333e+06 	 4.640521e-04 	 4.734704e+07 	
1.65083333e+06 	 4.401021e-04 	 4.655932e+07 	
1.66833333e+06 	 4.176701e-04 	 4.579405e+07 	
1.68000000e+06 	 4.034839e-04 	 4.529586e+07 	
1.69750000e+06 	 3.833173e-04 	 4.456595e+07 	
1.71500000e+06 	 3.643589e-04 	 4.385609e+07 	
1.73250000e+06 	 3.465566e-04 	 4.316555e+07 	
1.75000000e+06 	 3.297995e-04 	 4.249351e+07 	
1.76750000e+06 	 3.140374e-04 	 4.183930e+07 	
1.78500000e+06 	 2.991820e-04 	 4.120220e+07 	
1.80250000e+06 	 2.851827e-04 	 4.058159e+07 	
1.82000000e+06 	 2.719828e-04 	 3.997685e+07 	
1.83750000e+06 	 2.595191e-04 	 3.938738e+07 	
1.85500000e+06 	 2.477521e-04 	 3.881265e+07 	
1.87250000e+06 	 2.366306e-04 	 3.825210e+07 	
1.89000000e+06 	 2.261113e-04 	 3.770524e+07 	
1.90750000e+06 	 2.161595e-04 	 3.717158e+07 	
1.92500000e+06 	 2.067381e-04 	 3.665066e+07 	
1.94250000e+06 	 1.978134e-04 	 3.614205e+07 	
1.96000000e+06 	 1.893551e-04 	 3.564533e+07 	
1.97750000e+06 	 1.813354e-04 	 3.516010e+07 	
1.99500000e+06 	 1.737253e-04 	 3.468596e+07 	
2.01250000e+06 	 1.665005e-04 	 3.422256e+07 	
2.03000000e+06 	 1.596369e-04 	 3.376953e+07 	
2.04750000e+06 	 1.531162e-04 	 3.332656e+07 	
2.06500000e+06 	 1.469161e-04 	 3.289332e+07 	
2.08250000e+06 	 1.410186e-04 	 3.246949e+07 	
2.10000000e+06 	 1.354047e-04 	 3.205478e+07 	
2.11750000e+06 	 1.300604e-04 	 3.164891e+07 	
2.13500000e+06 	 1.249707e-04 	 3.125162e+07 	
2.15250000e+06 	 1.201194e-04 	 3.086262e+07 	
2.17000000e+06 	 1.154946e-04 	 3.048168e+07 	
2.18750000e+06 	 1.110839e-04 	 3.010856e+07 	
2.20500000e+06 	 1.068750e-04 	 2.974302e+07 	
2.22250000e+06 	 1.028573e-04 	 2.938484e+07 	
2.24000000e+06 	 9.902006e-05 	 2.903381e+07 	
2.25750000e+06 	 9.535475e-05 	 2.868972e+07 	
2.27500000e+06 	 9.185108e-05 	 2.835237e+07 	
2.29250000e+06 	 8.850154e-05 	 2.802158e+07 	
2.31000000e+06 	 8.529815e-05 	 2.769715e+07 	
2.32750000e+06 	 8.223273e-05 	 2.737892e+07 	
2.34500000e+06 	 7.929901e-05 	 2.706671e+07 	
2.36250000e+06 	 7.648958e-05 	 2.676035e+07 	
2.38000000e+06 	 7.379881e-05 	 2.645970e+07 	
2.39750000e+06 	 7.122071e-05 	 2.616459e+07 	
2.41500000e+06 	 6.874944e-05 	 2.587487e+07 	
2.43250000e+06 	 6.638012e-05 	 2.559042e+07 	
2.45000000e+06 	 6.410742e-05 	 2.531108e+07 	
2.46750000e+06 	 6.192713e-05 	 2.503672e+07 	
2.48500000e+06 	 5.983435e-05 	 2.476723e+07 	
2.50250000e+06 	 5.782531e-05 	 2.450246e+07 	
2.52000000e+06 	 5.589600e-05 	 2.424231e+07 	
2.53750000e+06 	 5.404266e-05 	 2.398666e+07 	
2.55500000e+06 	 5.226175e-05 	 2.373539e+07 	
2.57250000e+06 	 5.054983e-05 	 2.348840e+07 	
2.59000000e+06 	 4.890375e-05 	 2.324558e+07 	
2.60750000e+06 	 4.732062e-05 	 2.300683e+07 	
2.62500000e+06 	 4.579768e-05 	 2.277205e+07 	
2.64250000e+06 	 4.433194e-05 	 2.254115e+07 	
2.66000000e+06 	 4.292119e-05 	 2.231403e+07 	
2.67750000e+06 	 4.156294e-05 	 2.209061e+07 	
2.69500000e+06 	 4.025472e-05 	 2.187079e+07 	
2.71250000e+06 	 3.899446e-05 	 2.165450e+07 	
2.73000000e+06 	 3.778019e-05 	 2.144166e+07 	
2.74750000e+06 	 3.660967e-05 	 2.123217e+07 	
2.76500000e+06 	 3.548125e-05 	 2.102597e+07 	
2.78250000e+06 	 3.439313e-05 	 2.082299e+07 	
2.80000000e+06 	 3.334348e-05 	 2.062315e+07 	
2.81750000e+06 	 3.233077e-05 	 2.042637e+07 	
2.83500000e+06 	 3.135355e-05 	 2.023261e+07 	
2.85250000e+06 	 3.041015e-05 	 2.004177e+07 	
2.87000000e+06 	 2.949935e-05 	 1.985381e+07 	
2.88750000e+06 	 2.861981e-05 	 1.966866e+07 	
2.90500000e+06 	 2.777015e-05 	 1.948626e+07 	
2.92250000e+06 	 2.694931e-05 	 1.930656e+07 	
2.94000000e+06 	 2.615605e-05 	 1.912948e+07 	
2.95750000e+06 	 2.538924e-05 	 1.895499e+07 	
2.97500000e+06 	 2.464783e-05 	 1.878302e+07 	
2.99250000e+06 	 2.393089e-05 	 1.861352e+07 	
3.01000000e+06 	 2.323748e-05 	 1.844644e+07 	
3.02750000e+06 	 2.256656e-05 	 1.828173e+07 	
3.04500000e+06 	 2.191739e-05 	 1.811934e+07 	
3.06250000e+06 	 2.128912e-05 	 1.795923e+07 	
3.08000000e+06 	 2.068087e-05 	 1.780135e+07 	
3.09750000e+06 	 2.009195e-05 	 1.764566e+07 	
3.11500000e+06 	 1.952162e-05 	 1.749210e+07 	
3.13250000e+06 	 1.896915e-05 	 1.734065e+07 	
3.15000000e+06 	 1.843390e-05 	 1.719125e+07 	
3.16750000e+06 	 1.791520e-05 	 1.704387e+07 	
3.18500000e+06 	 1.741249e-05 	 1.689848e+07 	
3.20250000e+06 	 1.692514e-05 	 1.675502e+07 	
3.22000000e+06 	 1.645259e-05 	 1.661346e+07 	
3.23750000e+06 	 1.599428e-05 	 1.647377e+07 	
3.25500000e+06 	 1.554974e-05 	 1.633592e+07 	
3.27250000e+06 	 1.511847e-05 	 1.619986e+07 	
3.29000000e+06 	 1.469997e-05 	 1.606556e+07 	
3.30750000e+06 	 1.429381e-05 	 1.593300e+07 	
3.32500000e+06 	 1.389952e-05 	 1.580213e+07 	
3.34250000e+06 	 1.351671e-05 	 1.567294e+07 	
3.36000000e+06 	 1.314497e-05 	 1.554538e+07 	
3.37750000e+06 	 1.278390e-05 	 1.541942e+07 	
3.39500000e+06 	 1.243315e-05 	 1.529505e+07 	
3.41250000e+06 	 1.209232e-05 	 1.517223e+07 	
3.43000000e+06 	 1.176112e-05 	 1.505093e+07 	
3.44750000e+06 	 1.143920e-05 	 1.493113e+07 	
3.46500000e+06 	 1.112622e-05 	 1.481279e+07 	
3.50000000e+06 	 1.052596e-05 	 1.458044e+07 	
3.50050050e+06 	 1.051762e-05 	 1.457715e+07 	
3.50100100e+06 	 1.050928e-05 	 1.457387e+07 	
3.50150150e+06 	 1.050095e-05 	 1.457059e+07 	
3.50200200e+06 	 1.049262e-05 	 1.456731e+07 	
3.50250250e+06 	 1.048431e-05 	 1.456404e+07 	
3.50300300e+06 	 1.047599e-05 	 1.456076e+07 	
3.50350350e+06 	 1.046769e-05 	 1.455749e+07 	
3.50400400e+06 	 1.045939e-05 	 1.455421e+07 	
3.50450450e+06 	 1.045110e-05 	 1.455094e+07 	
3.50500501e+06 	 1.044282e-05 	 1.454767e+07 	
3.50550551e+06 	 1.043454e-05 	 1.454440e+07 	
3.50600601e+06 	 1.042627e-05 	 1.454113e+07 	
3.50650651e+06 	 1.041800e-05 	 1.453786e+07 	
3.50700701e+06 	 1.040974e-05 	 1.453459e+07 	
3.50750751e+06 	 1.040149e-05 	 1.453133e+07 	
3.50800801e+06 	 1.039324e-05 	 1.452806e+07 	
3.50850851e+06 	 1.038500e-05 	 1.452480e+07 	
3.50900901e+06 	 1.037677e-05 	 1.452154e+07 	
3.50950951e+06 	 1.036855e-05 	 1.451828e+07 	
3.51001001e+06 	 1.036033e-05 	 1.451501e+07 	
3.51051051e+06 	 1.035211e-05 	 1.451176e+07 	
3.51101101e+06 	 1.034391e-05 	 1.450850e+07 	
3.51151151e+06 	 1.033571e-05 	 1.450524e+07 	
3.51201201e+06 	 1.032751e-05 	 1.450199e+07 	
3.51251251e+06 	 1.031932e-05 	 1.449873e+07 	
3.51301301e+06 	 1.031114e-05 	 1.449548e+07 	
3.51351351e+06 	 1.030297e-05 	 1.449222e+07 	
3.51401401e+06 	 1.029480e-05 	 1.448897e+07 	
3.51451451e+06 	 1.028664e-05 	 1.448572e+07 	
3.51501502e+06 	 1.027848e-05 	 1.448247e+07 	
3.51551552e+06 	 1.027033e-05 	 1.447923e+07 	
3.51601602e+06 	 1.026219e-05 	 1.447598e+07 	
3.51651652e+06 	 1.025406e-05 	 1.447273e+07 	
3.51701702e+06 	 1.024593e-05 	 1.446949e+07 	
3.51751752e+06 	 1.023780e-05 	 1.446625e+07 	
3.51801802e+06 	 1.022969e-05 	 1.446300e+07 	
3.51851852e+06 	 1.022158e-05 	 1.445976e+07 	
3.51901902e+06 	 1.021347e-05 	 1.445652e+07 	
3.51951952e+06 	 1.020537e-05 	 1.445328e+07 	
3.52002002e+06 	 1.019728e-05 	 1.445005e+07 	
3.52052052e+06 	 1.018920e-05 	 1.444681e+07 	
3.52102102e+06 	 1.018112e-05 	 1.444357e+07 	
3.52152152e+06 	 1.017305e-05 	 1.444034e+07 	
3.52202202e+06 	 1.016498e-05 	 1.443711e+07 	
3.52252252e+06 	 1.015692e-05 	 1.443387e+07 	
3.52302302e+06 	 1.014887e-05 	 1.443064e+07 	
3.52352352e+06 	 1.014082e-05 	 1.442741e+07 	
3.52402402e+06 	 1.013278e-05 	 1.442418e+07 	
3.52452452e+06 	 1.012475e-05 	 1.442096e+07 	
3.52502503e+06 	 1.011672e-05 	 1.441773e+07 	
3.52552553e+06 	 1.010870e-05 	 1.441450e+07 	
3.52602603e+06 	 1.010068e-05 	 1.441128e+07 	
3.52652653e+06 	 1.009267e-05 	 1.440806e+07 	
3.52702703e+06 	 1.008467e-05 	 1.440483e+07 	
3.52752753e+06 	 1.007667e-05 	 1.440161e+07 	
3.52802803e+06 	 1.006868e-05 	 1.439839e+07 	
3.52852853e+06 	 1.006070e-05 	 1.439517e+07 	
3.52902903e+06 	 1.005272e-05 	 1.439196e+07 	
3.52952953e+06 	 1.004475e-05 	 1.438874e+07 	
3.53003003e+06 	 1.003678e-05 	 1.438552e+07 	
3.53053053e+06 	 1.002882e-05 	 1.438231e+07 	
3.53103103e+06 	 1.002087e-05 	 1.437910e+07 	
3.53153153e+06 	 1.001292e-05 	 1.437589e+07 	
3.53203203e+06 	 1.000498e-05 	 1.437267e+07 	
3.53253253e+06 	 9.997047e-06 	 1.436946e+07 	
3.53303303e+06 	 9.989119e-06 	 1.436626e+07 	
3.53353353e+06 	 9.981197e-06 	 1.436305e+07 	
3.53403403e+06 	 9.973281e-06 	 1.435984e+07 	
3.53453453e+06 	 9.965372e-06 	 1.435664e+07 	
3.53503504e+06 	 9.957468e-06 	 1.435343e+07 	
3.53553554e+06 	 9.949571e-06 	 1.435023e+07 	
3.53603604e+06 	 9.941680e-06 	 1.434702e+07 	
3.53653654e+06 	 9.933795e-06 	 1.434382e+07 	
3.53703704e+06 	 9.925916e-06 	 1.434062e+07 	
3.53753754e+06 	 9.918043e-06 	 1.433742e+07 	
3.53803804e+06 	 9.910177e-06 	 1.433423e+07 	
3.53853854e+06 	 9.902317e-06 	 1.433103e+07 	
3.53903904e+06 	 9.894462e-06 	 1.432783e+07 	
3.53953954e+06 	 9.886614e-06 	 1.432464e+07 	
3.54004004e+06 	 9.878772e-06 	 1.432145e+07 	
3.54054054e+06 	 9.870937e-06 	 1.431825e+07 	
3.54104104e+06 	 9.863107e-06 	 1.431506e+07 	
3.54154154e+06 	 9.855283e-06 	 1.431187e+07 	
3.54204204e+06 	 9.847466e-06 	 1.430868e+07 	
3.54254254e+06 	 9.839654e-06 	 1.430550e+07 	
3.54304304e+06 	 9.831849e-06 	 1.430231e+07 	
3.54354354e+06 	 9.824049e-06 	 1.429912e+07 	
3.54404404e+06 	 9.816256e-06 	 1.429594e+07 	
3.54454454e+06 	 9.808469e-06 	 1.429275e+07 	
3.54504505e+06 	 9.800688e-06 	 1.428957e+07 	
3.54554555e+06 	 9.792913e-06 	 1.428639e+07 	
3.54604605e+06 	 9.785144e-06 	 1.428321e+07 	
3.54654655e+06 	 9.777381e-06 	 1.428003e+07 	
3.54704705e+06 	 9.769624e-06 	 1.427685e+07 	
3.54754755e+06 	 9.761873e-06 	 1.427368e+07 	
3.54804805e+06 	 9.754129e-06 	 1.427050e+07 	
3.54854855e+06 	 9.746390e-06 	 1.426733e+07 	
3.54904905e+06 	 9.738658e-06 	 1.426415e+07 	
3.54954955e+06 	 9.730931e-06 	 1.426098e+07 	
3.55005005e+06 	 9.723210e-06 	 1.425781e+07 	
3.55055055e+06 	 9.715496e-06 	 1.425464e+07 	
3.55105105e+06 	 9.707787e-06 	 1.425147e+07 	
3.55155155e+06 	 9.700084e-06 	 1.424830e+07 	
3.55205205e+06 	 9.692388e-06 	 1.424513e+07 	
3.55255255e+06 	 9.684697e-06 	 1.424197e+07 	
3.55305305e+06 	 9.677012e-06 	 1.423880e+07 	
3.55355355e+06 	 9.669333e-06 	 1.423564e+07 	
3.55405405e+06 	 9.661660e-06 	 1.423247e+07 	
3.55455455e+06 	 9.653993e-06 	 1.422931e+07 	
3.55505506e+06 	 9.646332e-06 	 1.422615e+07 	
3.55555556e+06 	 9.638676e-06 	 1.422299e+07 	
3.55605606e+06 	 9.631027e-06 	 1.421983e+07 	
3.55655656e+06 	 9.623384e-06 	 1.421667e+07 	
3.55705706e+06 	 9.615746e-06 	 1.421352e+07 	
3.55755756e+06 	 9.608115e-06 	 1.421036e+07 	
3.55805806e+06 	 9.600489e-06 	 1.420721e+07 	
3.55855856e+06 	 9.592869e-06 	 1.420406e+07 	
3.55905906e+06 	 9.585255e-06 	 1.420090e+07 	
3.55955956e+06 	 9.577647e-06 	 1.419775e+07 	
3.56006006e+06 	 9.570045e-06 	 1.419460e+07 	
3.56056056e+06 	 9.562448e-06 	 1.419145e+07 	
3.56106106e+06 	 9.554858e-06 	 1.418831e+07 	
3.56156156e+06 	 9.547273e-06 	 1.418516e+07 	
3.56206206e+06 	 9.539695e-06 	 1.418201e+07 	
3.56256256e+06 	 9.532122e-06 	 1.417887e+07 	
3.56306306e+06 	 9.524555e-06 	 1.417572e+07 	
3.56356356e+06 	 9.516993e-06 	 1.417258e+07 	
3.56406406e+06 	 9.509438e-06 	 1.416944e+07 	
3.56456456e+06 	 9.501888e-06 	 1.416630e+07 	
3.56506507e+06 	 9.494345e-06 	 1.416316e+07 	
