r (cm)        	 rho (g/cm3) 	 T (K)       		 Linf = 3.534696e+38
1.20006035e+06 	 1.189992e+05 	 1.272115e+09 	
1.20011784e+06 	 1.104751e+05 	 1.248557e+09 	
1.20022801e+06 	 9.556435e+04 	 1.203887e+09 	
1.20033819e+06 	 8.237957e+04 	 1.159852e+09 	
1.20044836e+06 	 7.075973e+04 	 1.116474e+09 	
1.20053880e+06 	 6.228404e+04 	 1.081370e+09 	
1.20062925e+06 	 5.468353e+04 	 1.046737e+09 	
1.20071969e+06 	 4.788480e+04 	 1.012590e+09 	
1.20081014e+06 	 4.181886e+04 	 9.789400e+08 	
1.20090059e+06 	 3.642105e+04 	 9.458026e+08 	
1.20099033e+06 	 3.166596e+04 	 9.134432e+08 	
1.20108007e+06 	 2.745390e+04 	 8.816162e+08 	
1.20116981e+06 	 2.373348e+04 	 8.503357e+08 	
1.20124323e+06 	 2.102199e+04 	 8.251621e+08 	
1.20131664e+06 	 1.858309e+04 	 8.003720e+08 	
1.20139006e+06 	 1.639388e+04 	 7.759736e+08 	
1.20146348e+06 	 1.443292e+04 	 7.519748e+08 	
1.20153689e+06 	 1.268017e+04 	 7.283839e+08 	
1.20161031e+06 	 1.111695e+04 	 7.052088e+08 	
1.20168402e+06 	 9.720563e+03 	 6.823665e+08 	
1.20175774e+06 	 8.481352e+03 	 6.599597e+08 	
1.20183145e+06 	 7.384176e+03 	 6.379962e+08 	
1.20189215e+06 	 6.577386e+03 	 6.202481e+08 	
1.20195286e+06 	 5.850151e+03 	 6.028102e+08 	
1.20201356e+06 	 5.195697e+03 	 5.856868e+08 	
1.20207426e+06 	 4.607712e+03 	 5.688819e+08 	
1.20213496e+06 	 4.080323e+03 	 5.523995e+08 	
1.20219566e+06 	 3.608077e+03 	 5.362433e+08 	
1.20225637e+06 	 3.185920e+03 	 5.204171e+08 	
1.20231917e+06 	 2.796886e+03 	 5.043934e+08 	
1.20238198e+06 	 2.451694e+03 	 4.887301e+08 	
1.20243385e+06 	 2.196523e+03 	 4.760674e+08 	
1.20248572e+06 	 1.965978e+03 	 4.636545e+08 	
1.20253759e+06 	 1.757941e+03 	 4.514931e+08 	
1.20258947e+06 	 1.570443e+03 	 4.395845e+08 	
1.20264134e+06 	 1.401662e+03 	 4.279299e+08 	
1.20269321e+06 	 1.249914e+03 	 4.165306e+08 	
1.20274508e+06 	 1.113642e+03 	 4.053873e+08 	
1.20279696e+06 	 9.914126e+02 	 3.945008e+08 	
1.20284883e+06 	 8.819057e+02 	 3.838717e+08 	
1.20290369e+06 	 7.785917e+02 	 3.729107e+08 	
1.20294925e+06 	 7.016363e+02 	 3.640272e+08 	
1.20299481e+06 	 6.319640e+02 	 3.553425e+08 	
1.20304036e+06 	 5.689376e+02 	 3.468563e+08 	
1.20308592e+06 	 5.119688e+02 	 3.385682e+08 	
1.20313148e+06 	 4.605156e+02 	 3.304778e+08 	
1.20317704e+06 	 4.140791e+02 	 3.225843e+08 	
1.20322260e+06 	 3.722006e+02 	 3.148871e+08 	
1.20326816e+06 	 3.344593e+02 	 3.073851e+08 	
1.20331372e+06 	 3.004691e+02 	 3.000772e+08 	
1.20335928e+06 	 2.698768e+02 	 2.929623e+08 	
1.20340483e+06 	 2.423594e+02 	 2.860388e+08 	
1.20345039e+06 	 2.176218e+02 	 2.793053e+08 	
1.20349595e+06 	 1.953951e+02 	 2.727600e+08 	
1.20354151e+06 	 1.754342e+02 	 2.664011e+08 	
1.20358591e+06 	 1.579493e+02 	 2.603817e+08 	
1.20363031e+06 	 1.422168e+02 	 2.545354e+08 	
1.20367470e+06 	 1.280661e+02 	 2.488601e+08 	
1.20371910e+06 	 1.153420e+02 	 2.433537e+08 	
1.20376350e+06 	 1.039039e+02 	 2.380136e+08 	
1.20380790e+06 	 9.362399e+01 	 2.328376e+08 	
1.20385229e+06 	 8.438671e+01 	 2.278230e+08 	
1.20389669e+06 	 7.608741e+01 	 2.229672e+08 	
1.20394109e+06 	 6.863154e+01 	 2.182673e+08 	
1.20398549e+06 	 6.193366e+01 	 2.137205e+08 	
1.20402988e+06 	 5.591670e+01 	 2.093238e+08 	
1.20407428e+06 	 5.051119e+01 	 2.050743e+08 	
1.20411868e+06 	 4.565452e+01 	 2.009687e+08 	
1.20416308e+06 	 4.129035e+01 	 1.970040e+08 	
1.20420747e+06 	 3.736801e+01 	 1.931770e+08 	
1.20425187e+06 	 3.384194e+01 	 1.894842e+08 	
1.20429627e+06 	 3.067123e+01 	 1.859225e+08 	
1.20434067e+06 	 2.781915e+01 	 1.824885e+08 	
1.20438507e+06 	 2.525274e+01 	 1.791787e+08 	
1.20443157e+06 	 2.283863e+01 	 1.758414e+08 	
1.20447808e+06 	 2.067519e+01 	 1.726328e+08 	
1.20452458e+06 	 1.873534e+01 	 1.695490e+08 	
1.20457109e+06 	 1.699495e+01 	 1.665862e+08 	
1.20461760e+06 	 1.543253e+01 	 1.637404e+08 	
1.20466410e+06 	 1.402894e+01 	 1.610078e+08 	
1.20471061e+06 	 1.276714e+01 	 1.583845e+08 	
1.20475711e+06 	 1.163195e+01 	 1.558667e+08 	
1.20480362e+06 	 1.060988e+01 	 1.534508e+08 	
1.20485013e+06 	 9.688892e+00 	 1.511329e+08 	
1.20491044e+06 	 8.627629e+00 	 1.482670e+08 	
1.20497076e+06 	 7.698057e+00 	 1.455523e+08 	
1.20503107e+06 	 6.882579e+00 	 1.429813e+08 	
1.20509139e+06 	 6.166052e+00 	 1.405466e+08 	
1.20515170e+06 	 5.535439e+00 	 1.382411e+08 	
1.20521202e+06 	 4.979506e+00 	 1.360581e+08 	
1.20527233e+06 	 4.488573e+00 	 1.339911e+08 	
1.20533265e+06 	 4.054285e+00 	 1.320336e+08 	
1.20539297e+06 	 3.669431e+00 	 1.301797e+08 	
1.20545328e+06 	 3.327776e+00 	 1.284237e+08 	
1.20551360e+06 	 3.023930e+00 	 1.267599e+08 	
1.20557391e+06 	 2.753222e+00 	 1.251833e+08 	
1.20563423e+06 	 2.511604e+00 	 1.236888e+08 	
1.20569454e+06 	 2.295562e+00 	 1.222717e+08 	
1.20575486e+06 	 2.102041e+00 	 1.209276e+08 	
1.20582700e+06 	 1.896454e+00 	 1.194097e+08 	
1.20589914e+06 	 1.715389e+00 	 1.179834e+08 	
1.20597129e+06 	 1.555520e+00 	 1.166423e+08 	
1.20604343e+06 	 1.414014e+00 	 1.153806e+08 	
1.20611558e+06 	 1.288455e+00 	 1.141926e+08 	
1.20618772e+06 	 1.176777e+00 	 1.130734e+08 	
1.20625986e+06 	 1.077209e+00 	 1.120181e+08 	
1.20633201e+06 	 9.882304e-01 	 1.110224e+08 	
1.20642878e+06 	 8.832414e-01 	 1.097732e+08 	
1.20652556e+06 	 7.923136e-01 	 1.086150e+08 	
1.20662234e+06 	 7.132564e-01 	 1.075394e+08 	
1.20671911e+06 	 6.442598e-01 	 1.065393e+08 	
1.20681589e+06 	 5.838230e-01 	 1.056080e+08 	
1.20691267e+06 	 5.306963e-01 	 1.047395e+08 	
1.20703463e+06 	 4.725554e-01 	 1.037262e+08 	
1.20715660e+06 	 4.226621e-01 	 1.027945e+08 	
1.20727856e+06 	 3.796324e-01 	 1.019360e+08 	
1.20740052e+06 	 3.423449e-01 	 1.011432e+08 	
1.20752249e+06 	 3.098860e-01 	 1.004095e+08 	
1.20767020e+06 	 2.759786e-01 	 9.959184e+07 	
1.20781791e+06 	 2.469892e-01 	 9.884336e+07 	
1.20796562e+06 	 2.220626e-01 	 9.815627e+07 	
1.20811333e+06 	 2.005134e-01 	 9.752379e+07 	
1.20826104e+06 	 1.817890e-01 	 9.694005e+07 	
1.20847575e+06 	 1.587069e-01 	 9.616808e+07 	
1.20869046e+06 	 1.395778e-01 	 9.547500e+07 	
1.20890517e+06 	 1.235846e-01 	 9.484974e+07 	
1.20911988e+06 	 1.101042e-01 	 9.428311e+07 	
1.20937774e+06 	 9.656614e-02 	 9.366934e+07 	
1.20963559e+06 	 8.532939e-02 	 9.311807e+07 	
1.20989345e+06 	 7.591701e-02 	 9.262028e+07 	
1.21015130e+06 	 6.796624e-02 	 9.216855e+07 	
1.21053051e+06 	 5.835806e-02 	 9.157518e+07 	
1.21090972e+06 	 5.066182e-02 	 9.105249e+07 	
1.21128893e+06 	 4.441298e-02 	 9.058821e+07 	
1.21182144e+06 	 3.745935e-02 	 9.001674e+07 	
1.21235394e+06 	 3.206935e-02 	 8.952120e+07 	
1.21288644e+06 	 2.781371e-02 	 8.908642e+07 	
1.21350115e+06 	 2.393277e-02 	 8.864525e+07 	
1.21411585e+06 	 2.086615e-02 	 8.825661e+07 	
1.21473056e+06 	 1.840290e-02 	 8.791051e+07 	
1.21564740e+06 	 1.554277e-02 	 8.745737e+07 	
1.21656424e+06 	 1.337729e-02 	 8.706364e+07 	
1.21777947e+06 	 1.123374e-02 	 8.661134e+07 	
1.21899470e+06 	 9.652411e-03 	 8.621924e+07 	
1.22041983e+06 	 8.274716e-03 	 8.581680e+07 	
1.22184496e+06 	 7.245835e-03 	 8.546129e+07 	
1.22327009e+06 	 6.456891e-03 	 8.514168e+07 	
1.22552497e+06 	 5.537984e-03 	 8.469102e+07 	
1.22684658e+06 	 5.130166e-03 	 8.445104e+07 	
1.22967925e+06 	 4.471168e-03 	 8.398120e+07 	
1.23198441e+06 	 4.083772e-03 	 8.363289e+07 	
1.23584590e+06 	 3.621710e-03 	 8.309782e+07 	
1.23805011e+06 	 3.428348e-03 	 8.281264e+07 	
1.24292010e+06 	 3.115006e-03 	 8.221955e+07 	
1.24680793e+06 	 2.938934e-03 	 8.177297e+07 	
1.25337316e+06 	 2.729171e-03 	 8.105589e+07 	
1.25842271e+06 	 2.613555e-03 	 8.052702e+07 	
1.26748935e+06 	 2.460838e-03 	 7.961174e+07 	
1.27390377e+06 	 2.377443e-03 	 7.898420e+07 	
1.28686088e+06 	 2.240675e-03 	 7.775481e+07 	
1.29632184e+06 	 2.155630e-03 	 7.688406e+07 	
1.29963222e+06 	 2.127719e-03 	 7.658418e+07 	
1.29996325e+06 	 2.124971e-03 	 7.655433e+07 	
1.29999636e+06 	 2.124696e-03 	 7.655134e+07 	
1.29999967e+06 	 2.124669e-03 	 7.655104e+07 	
1.30000000e+06 	 2.124666e-03 	 7.655101e+07 	
1.32000000e+06 	 1.970027e-03 	 7.478936e+07 	
1.34000000e+06 	 1.832254e-03 	 7.310501e+07 	
1.36000000e+06 	 1.707110e-03 	 7.149196e+07 	
1.38000000e+06 	 1.593007e-03 	 6.994574e+07 	
1.41000000e+06 	 1.439572e-03 	 6.774277e+07 	
1.43000000e+06 	 1.347779e-03 	 6.634648e+07 	
1.45000000e+06 	 1.263409e-03 	 6.500424e+07 	
1.47000000e+06 	 1.185733e-03 	 6.371299e+07 	
1.49000000e+06 	 1.114172e-03 	 6.247000e+07 	
1.51000000e+06 	 1.048016e-03 	 6.127255e+07 	
1.54000000e+06 	 9.580318e-04 	 5.955667e+07 	
1.56000000e+06 	 9.035117e-04 	 5.846301e+07 	
1.58000000e+06 	 8.529360e-04 	 5.740718e+07 	
1.60000000e+06 	 8.059961e-04 	 5.638733e+07 	
1.63000000e+06 	 7.415852e-04 	 5.492102e+07 	
1.65000000e+06 	 7.023269e-04 	 5.398348e+07 	
1.67000000e+06 	 6.657282e-04 	 5.307618e+07 	
1.70000000e+06 	 6.152658e-04 	 5.176875e+07 	
1.72000000e+06 	 5.843568e-04 	 5.093098e+07 	
1.75000000e+06 	 5.416588e-04 	 4.972204e+07 	
1.77000000e+06 	 5.154234e-04 	 4.894628e+07 	
1.80000000e+06 	 4.790537e-04 	 4.782527e+07 	
1.82000000e+06 	 4.566292e-04 	 4.710495e+07 	
1.85000000e+06 	 4.254988e-04 	 4.606282e+07 	
1.87000000e+06 	 4.062535e-04 	 4.539236e+07 	
1.90000000e+06 	 3.794413e-04 	 4.442116e+07 	
1.92000000e+06 	 3.628357e-04 	 4.379564e+07 	
1.95000000e+06 	 3.396253e-04 	 4.288850e+07 	
1.98000000e+06 	 3.183153e-04 	 4.201689e+07 	
2.00000000e+06 	 3.050624e-04 	 4.145454e+07 	
2.03000000e+06 	 2.864846e-04 	 4.063771e+07 	
2.05000000e+06 	 2.749086e-04 	 4.011020e+07 	
2.08000000e+06 	 2.586565e-04 	 3.934326e+07 	
2.11000000e+06 	 2.436351e-04 	 3.860414e+07 	
2.13000000e+06 	 2.342376e-04 	 3.812611e+07 	
2.16000000e+06 	 2.210128e-04 	 3.743015e+07 	
2.19000000e+06 	 2.087303e-04 	 3.675831e+07 	
2.22000000e+06 	 1.973209e-04 	 3.610941e+07 	
2.25000000e+06 	 1.867075e-04 	 3.548231e+07 	
2.28000000e+06 	 1.768264e-04 	 3.487597e+07 	
2.31000000e+06 	 1.676086e-04 	 3.428936e+07 	
2.34000000e+06 	 1.590050e-04 	 3.372157e+07 	
2.37000000e+06 	 1.509681e-04 	 3.317174e+07 	
2.40000000e+06 	 1.434495e-04 	 3.263902e+07 	
2.43000000e+06 	 1.364090e-04 	 3.212266e+07 	
2.46000000e+06 	 1.298102e-04 	 3.162193e+07 	
2.49000000e+06 	 1.236191e-04 	 3.113613e+07 	
2.52000000e+06 	 1.178064e-04 	 3.066463e+07 	
2.55000000e+06 	 1.123444e-04 	 3.020683e+07 	
2.58000000e+06 	 1.072064e-04 	 2.976213e+07 	
2.61000000e+06 	 1.023689e-04 	 2.933000e+07 	
2.64000000e+06 	 9.781168e-05 	 2.890993e+07 	
2.67000000e+06 	 9.351416e-05 	 2.850142e+07 	
2.70000000e+06 	 8.945886e-05 	 2.810401e+07 	
2.73000000e+06 	 8.562893e-05 	 2.771728e+07 	
2.76000000e+06 	 8.200935e-05 	 2.734079e+07 	
2.79000000e+06 	 7.858662e-05 	 2.697417e+07 	
2.82000000e+06 	 7.534700e-05 	 2.661703e+07 	
2.85000000e+06 	 7.227846e-05 	 2.626901e+07 	
2.88000000e+06 	 6.937072e-05 	 2.592979e+07 	
2.91000000e+06 	 6.661306e-05 	 2.559903e+07 	
2.94000000e+06 	 6.399629e-05 	 2.527644e+07 	
2.97000000e+06 	 6.151158e-05 	 2.496171e+07 	
3.00000000e+06 	 5.915072e-05 	 2.465457e+07 	
3.03000000e+06 	 5.690628e-05 	 2.435476e+07 	
3.06000000e+06 	 5.477119e-05 	 2.406202e+07 	
3.09000000e+06 	 5.273928e-05 	 2.377611e+07 	
3.12000000e+06 	 5.080412e-05 	 2.349679e+07 	
3.15000000e+06 	 4.896042e-05 	 2.322385e+07 	
3.18000000e+06 	 4.720271e-05 	 2.295708e+07 	
3.21000000e+06 	 4.552606e-05 	 2.269627e+07 	
3.24000000e+06 	 4.392610e-05 	 2.244123e+07 	
3.27000000e+06 	 4.239844e-05 	 2.219177e+07 	
3.30000000e+06 	 4.093906e-05 	 2.194772e+07 	
3.33000000e+06 	 3.954437e-05 	 2.170890e+07 	
3.36000000e+06 	 3.821073e-05 	 2.147516e+07 	
3.39000000e+06 	 3.693503e-05 	 2.124634e+07 	
3.42000000e+06 	 3.571408e-05 	 2.102228e+07 	
3.45000000e+06 	 3.454504e-05 	 2.080284e+07 	
3.48000000e+06 	 3.342519e-05 	 2.058788e+07 	
3.51000000e+06 	 3.235209e-05 	 2.037727e+07 	
3.54000000e+06 	 3.132328e-05 	 2.017089e+07 	
3.57000000e+06 	 3.033654e-05 	 1.996860e+07 	
3.60000000e+06 	 2.938976e-05 	 1.977030e+07 	
3.63000000e+06 	 2.848101e-05 	 1.957586e+07 	
3.66000000e+06 	 2.760839e-05 	 1.938518e+07 	
3.69000000e+06 	 2.677013e-05 	 1.919815e+07 	
3.72000000e+06 	 2.596459e-05 	 1.901467e+07 	
3.75000000e+06 	 2.519020e-05 	 1.883464e+07 	
3.78000000e+06 	 2.444549e-05 	 1.865796e+07 	
3.81000000e+06 	 2.372909e-05 	 1.848456e+07 	
3.84000000e+06 	 2.303966e-05 	 1.831433e+07 	
3.87000000e+06 	 2.237594e-05 	 1.814719e+07 	
3.90000000e+06 	 2.173680e-05 	 1.798307e+07 	
3.93000000e+06 	 2.112109e-05 	 1.782188e+07 	
3.96000000e+06 	 2.052776e-05 	 1.766354e+07 	
3.99000000e+06 	 1.995581e-05 	 1.750799e+07 	
4.02000000e+06 	 1.940432e-05 	 1.735515e+07 	
4.05000000e+06 	 1.887238e-05 	 1.720495e+07 	
4.08000000e+06 	 1.835912e-05 	 1.705732e+07 	
4.11000000e+06 	 1.786376e-05 	 1.691221e+07 	
4.14000000e+06 	 1.738553e-05 	 1.676955e+07 	
4.17000000e+06 	 1.692370e-05 	 1.662928e+07 	
4.20000000e+06 	 1.647757e-05 	 1.649133e+07 	
4.23000000e+06 	 1.604649e-05 	 1.635567e+07 	
4.26000000e+06 	 1.562985e-05 	 1.622222e+07 	
4.29000000e+06 	 1.522705e-05 	 1.609094e+07 	
4.32000000e+06 	 1.483751e-05 	 1.596177e+07 	
4.35000000e+06 	 1.446070e-05 	 1.583467e+07 	
4.38000000e+06 	 1.409612e-05 	 1.570959e+07 	
4.41000000e+06 	 1.374328e-05 	 1.558648e+07 	
4.44000000e+06 	 1.340170e-05 	 1.546529e+07 	
4.47000000e+06 	 1.307095e-05 	 1.534599e+07 	
4.50000000e+06 	 1.275061e-05 	 1.522853e+07 	
4.53000000e+06 	 1.244027e-05 	 1.511286e+07 	
4.56000000e+06 	 1.213954e-05 	 1.499896e+07 	
4.59000000e+06 	 1.184807e-05 	 1.488677e+07 	
4.62000000e+06 	 1.156550e-05 	 1.477626e+07 	
4.65000000e+06 	 1.129149e-05 	 1.466740e+07 	
4.68000000e+06 	 1.102573e-05 	 1.456014e+07 	
4.71000000e+06 	 1.076791e-05 	 1.445446e+07 	
4.74000000e+06 	 1.051773e-05 	 1.435032e+07 	
4.77000000e+06 	 1.027493e-05 	 1.424769e+07 	
4.80000000e+06 	 1.003922e-05 	 1.414653e+07 	
4.83000000e+06 	 9.810364e-06 	 1.404682e+07 	
4.86000000e+06 	 9.588103e-06 	 1.394853e+07 	
4.89000000e+06 	 9.372207e-06 	 1.385161e+07 	
4.92000000e+06 	 9.162449e-06 	 1.375606e+07 	
4.95000000e+06 	 8.958617e-06 	 1.366184e+07 	
4.98000000e+06 	 8.760502e-06 	 1.356891e+07 	
5.01000000e+06 	 8.567906e-06 	 1.347727e+07 	
5.04000000e+06 	 8.380640e-06 	 1.338687e+07 	
5.07000000e+06 	 8.198522e-06 	 1.329770e+07 	
5.10000000e+06 	 8.021377e-06 	 1.320973e+07 	
5.13000000e+06 	 7.849036e-06 	 1.312294e+07 	
5.16000000e+06 	 7.681340e-06 	 1.303730e+07 	
5.19000000e+06 	 7.518133e-06 	 1.295280e+07 	
5.22000000e+06 	 7.359266e-06 	 1.286940e+07 	
5.25000000e+06 	 7.204597e-06 	 1.278710e+07 	
5.28000000e+06 	 7.053989e-06 	 1.270586e+07 	
5.31000000e+06 	 6.907309e-06 	 1.262568e+07 	
5.34000000e+06 	 6.764432e-06 	 1.254652e+07 	
5.37000000e+06 	 6.625235e-06 	 1.246837e+07 	
5.40000000e+06 	 6.489600e-06 	 1.239121e+07 	
5.43000000e+06 	 6.357415e-06 	 1.231502e+07 	
5.46000000e+06 	 6.228572e-06 	 1.223978e+07 	
5.49000000e+06 	 6.102965e-06 	 1.216549e+07 	
5.52000000e+06 	 5.980494e-06 	 1.209211e+07 	
5.55000000e+06 	 5.861061e-06 	 1.201964e+07 	
5.58000000e+06 	 5.744574e-06 	 1.194805e+07 	
5.61000000e+06 	 5.630942e-06 	 1.187733e+07 	
5.64000000e+06 	 5.520079e-06 	 1.180748e+07 	
5.67000000e+06 	 5.411901e-06 	 1.173846e+07 	
5.70000000e+06 	 5.306328e-06 	 1.167026e+07 	
5.73000000e+06 	 5.203280e-06 	 1.160288e+07 	
5.76000000e+06 	 5.102684e-06 	 1.153629e+07 	
5.79000000e+06 	 5.004468e-06 	 1.147049e+07 	
5.82000000e+06 	 4.908561e-06 	 1.140546e+07 	
5.85000000e+06 	 4.814895e-06 	 1.134119e+07 	
5.88000000e+06 	 4.723406e-06 	 1.127766e+07 	
5.91000000e+06 	 4.634031e-06 	 1.121486e+07 	
5.94000000e+06 	 4.546710e-06 	 1.115278e+07 	
6.00000000e+06 	 4.377996e-06 	 1.103073e+07 	
6.00050050e+06 	 4.376620e-06 	 1.102972e+07 	
6.00100100e+06 	 4.375246e-06 	 1.102872e+07 	
6.00150150e+06 	 4.373872e-06 	 1.102771e+07 	
6.00200200e+06 	 4.372498e-06 	 1.102670e+07 	
6.00250250e+06 	 4.371125e-06 	 1.102570e+07 	
6.00300300e+06 	 4.369753e-06 	 1.102469e+07 	
6.00350350e+06 	 4.368381e-06 	 1.102369e+07 	
6.00400400e+06 	 4.367010e-06 	 1.102268e+07 	
6.00450450e+06 	 4.365639e-06 	 1.102168e+07 	
6.00500501e+06 	 4.364268e-06 	 1.102067e+07 	
6.00550551e+06 	 4.362898e-06 	 1.101967e+07 	
6.00600601e+06 	 4.361529e-06 	 1.101866e+07 	
6.00650651e+06 	 4.360160e-06 	 1.101766e+07 	
6.00700701e+06 	 4.358792e-06 	 1.101666e+07 	
6.00750751e+06 	 4.357424e-06 	 1.101565e+07 	
6.00800801e+06 	 4.356057e-06 	 1.101465e+07 	
6.00850851e+06 	 4.354690e-06 	 1.101365e+07 	
6.00900901e+06 	 4.353324e-06 	 1.101264e+07 	
6.00950951e+06 	 4.351958e-06 	 1.101164e+07 	
6.01001001e+06 	 4.350593e-06 	 1.101064e+07 	
6.01051051e+06 	 4.349228e-06 	 1.100963e+07 	
6.01101101e+06 	 4.347864e-06 	 1.100863e+07 	
6.01151151e+06 	 4.346501e-06 	 1.100763e+07 	
6.01201201e+06 	 4.345138e-06 	 1.100663e+07 	
6.01251251e+06 	 4.343775e-06 	 1.100562e+07 	
6.01301301e+06 	 4.342413e-06 	 1.100462e+07 	
6.01351351e+06 	 4.341051e-06 	 1.100362e+07 	
6.01401401e+06 	 4.339690e-06 	 1.100262e+07 	
6.01451451e+06 	 4.338330e-06 	 1.100162e+07 	
6.01501502e+06 	 4.336970e-06 	 1.100062e+07 	
6.01551552e+06 	 4.335610e-06 	 1.099962e+07 	
6.01601602e+06 	 4.334252e-06 	 1.099862e+07 	
6.01651652e+06 	 4.332893e-06 	 1.099762e+07 	
6.01701702e+06 	 4.331535e-06 	 1.099662e+07 	
6.01751752e+06 	 4.330178e-06 	 1.099562e+07 	
6.01801802e+06 	 4.328821e-06 	 1.099462e+07 	
6.01851852e+06 	 4.327464e-06 	 1.099362e+07 	
6.01901902e+06 	 4.326109e-06 	 1.099262e+07 	
6.01951952e+06 	 4.324753e-06 	 1.099162e+07 	
6.02002002e+06 	 4.323398e-06 	 1.099062e+07 	
6.02052052e+06 	 4.322044e-06 	 1.098962e+07 	
6.02102102e+06 	 4.320690e-06 	 1.098862e+07 	
6.02152152e+06 	 4.319337e-06 	 1.098762e+07 	
6.02202202e+06 	 4.317984e-06 	 1.098662e+07 	
6.02252252e+06 	 4.316632e-06 	 1.098563e+07 	
6.02302302e+06 	 4.315280e-06 	 1.098463e+07 	
6.02352352e+06 	 4.313929e-06 	 1.098363e+07 	
6.02402402e+06 	 4.312578e-06 	 1.098263e+07 	
6.02452452e+06 	 4.311228e-06 	 1.098164e+07 	
6.02502503e+06 	 4.309878e-06 	 1.098064e+07 	
6.02552553e+06 	 4.308529e-06 	 1.097964e+07 	
6.02602603e+06 	 4.307180e-06 	 1.097864e+07 	
6.02652653e+06 	 4.305832e-06 	 1.097765e+07 	
6.02702703e+06 	 4.304485e-06 	 1.097665e+07 	
6.02752753e+06 	 4.303137e-06 	 1.097566e+07 	
6.02802803e+06 	 4.301791e-06 	 1.097466e+07 	
6.02852853e+06 	 4.300445e-06 	 1.097366e+07 	
6.02902903e+06 	 4.299099e-06 	 1.097267e+07 	
6.02952953e+06 	 4.297754e-06 	 1.097167e+07 	
6.03003003e+06 	 4.296409e-06 	 1.097068e+07 	
6.03053053e+06 	 4.295065e-06 	 1.096968e+07 	
6.03103103e+06 	 4.293722e-06 	 1.096869e+07 	
6.03153153e+06 	 4.292379e-06 	 1.096769e+07 	
6.03203203e+06 	 4.291036e-06 	 1.096670e+07 	
6.03253253e+06 	 4.289694e-06 	 1.096570e+07 	
6.03303303e+06 	 4.288353e-06 	 1.096471e+07 	
6.03353353e+06 	 4.287011e-06 	 1.096371e+07 	
6.03403403e+06 	 4.285671e-06 	 1.096272e+07 	
6.03453453e+06 	 4.284331e-06 	 1.096173e+07 	
6.03503504e+06 	 4.282991e-06 	 1.096073e+07 	
6.03553554e+06 	 4.281652e-06 	 1.095974e+07 	
6.03603604e+06 	 4.280314e-06 	 1.095875e+07 	
6.03653654e+06 	 4.278976e-06 	 1.095775e+07 	
6.03703704e+06 	 4.277638e-06 	 1.095676e+07 	
6.03753754e+06 	 4.276301e-06 	 1.095577e+07 	
6.03803804e+06 	 4.274965e-06 	 1.095478e+07 	
6.03853854e+06 	 4.273629e-06 	 1.095378e+07 	
6.03903904e+06 	 4.272294e-06 	 1.095279e+07 	
6.03953954e+06 	 4.270959e-06 	 1.095180e+07 	
6.04004004e+06 	 4.269624e-06 	 1.095081e+07 	
6.04054054e+06 	 4.268290e-06 	 1.094982e+07 	
6.04104104e+06 	 4.266957e-06 	 1.094883e+07 	
6.04154154e+06 	 4.265624e-06 	 1.094784e+07 	
6.04204204e+06 	 4.264291e-06 	 1.094685e+07 	
6.04254254e+06 	 4.262959e-06 	 1.094585e+07 	
6.04304304e+06 	 4.261628e-06 	 1.094486e+07 	
6.04354354e+06 	 4.260297e-06 	 1.094387e+07 	
6.04404404e+06 	 4.258967e-06 	 1.094288e+07 	
6.04454454e+06 	 4.257637e-06 	 1.094189e+07 	
6.04504505e+06 	 4.256307e-06 	 1.094090e+07 	
6.04554555e+06 	 4.254978e-06 	 1.093991e+07 	
6.04604605e+06 	 4.253650e-06 	 1.093892e+07 	
6.04654655e+06 	 4.252322e-06 	 1.093794e+07 	
6.04704705e+06 	 4.250995e-06 	 1.093695e+07 	
6.04754755e+06 	 4.249668e-06 	 1.093596e+07 	
