r (cm)        	 rho (g/cm3) 	 T (K)       		 Linf = 3.539938e+38
1.20008679e+06 	 1.188541e+05 	 1.272528e+09 	
1.20014727e+06 	 1.099233e+05 	 1.247780e+09 	
1.20025743e+06 	 9.509387e+04 	 1.203171e+09 	
1.20036760e+06 	 8.198074e+04 	 1.159199e+09 	
1.20047777e+06 	 7.042370e+04 	 1.115885e+09 	
1.20056823e+06 	 6.199178e+04 	 1.080826e+09 	
1.20065870e+06 	 5.443043e+04 	 1.046238e+09 	
1.20074916e+06 	 4.766661e+04 	 1.012136e+09 	
1.20083962e+06 	 4.163168e+04 	 9.785332e+08 	
1.20093009e+06 	 3.626132e+04 	 9.454427e+08 	
1.20101986e+06 	 3.152958e+04 	 9.131256e+08 	
1.20110963e+06 	 2.733811e+04 	 8.813413e+08 	
1.20119940e+06 	 2.363576e+04 	 8.501042e+08 	
1.20127287e+06 	 2.093658e+04 	 8.249591e+08 	
1.20134633e+06 	 1.850875e+04 	 8.001981e+08 	
1.20141980e+06 	 1.632946e+04 	 7.758292e+08 	
1.20149326e+06 	 1.437734e+04 	 7.518605e+08 	
1.20156672e+06 	 1.263247e+04 	 7.283001e+08 	
1.20164019e+06 	 1.107622e+04 	 7.051560e+08 	
1.20171396e+06 	 9.685788e+03 	 6.823415e+08 	
1.20178773e+06 	 8.451836e+03 	 6.599629e+08 	
1.20186150e+06 	 7.359282e+03 	 6.380283e+08 	
1.20192228e+06 	 6.555566e+03 	 6.202974e+08 	
1.20198305e+06 	 5.831102e+03 	 6.028773e+08 	
1.20204383e+06 	 5.179141e+03 	 5.857722e+08 	
1.20210460e+06 	 4.593390e+03 	 5.689861e+08 	
1.20216538e+06 	 4.067997e+03 	 5.525230e+08 	
1.20222615e+06 	 3.597528e+03 	 5.363865e+08 	
1.20228693e+06 	 3.176948e+03 	 5.205804e+08 	
1.20234981e+06 	 2.789306e+03 	 5.045760e+08 	
1.20241270e+06 	 2.445339e+03 	 4.889324e+08 	
1.20246467e+06 	 2.190927e+03 	 4.762793e+08 	
1.20251664e+06 	 1.961073e+03 	 4.638766e+08 	
1.20256861e+06 	 1.753661e+03 	 4.517258e+08 	
1.20262058e+06 	 1.566728e+03 	 4.398284e+08 	
1.20267255e+06 	 1.398457e+03 	 4.281856e+08 	
1.20272452e+06 	 1.247165e+03 	 4.167985e+08 	
1.20277649e+06 	 1.111302e+03 	 4.056678e+08 	
1.20282847e+06 	 9.894360e+02 	 3.947945e+08 	
1.20288044e+06 	 8.802521e+02 	 3.841788e+08 	
1.20293540e+06 	 7.772321e+02 	 3.732317e+08 	
1.20298110e+06 	 7.004177e+02 	 3.643511e+08 	
1.20302679e+06 	 6.308775e+02 	 3.556698e+08 	
1.20307249e+06 	 5.679741e+02 	 3.471878e+08 	
1.20311818e+06 	 5.111195e+02 	 3.389045e+08 	
1.20316388e+06 	 4.597717e+02 	 3.308194e+08 	
1.20320957e+06 	 4.134320e+02 	 3.229319e+08 	
1.20325527e+06 	 3.716423e+02 	 3.152412e+08 	
1.20330096e+06 	 3.339817e+02 	 3.077462e+08 	
1.20334666e+06 	 3.000649e+02 	 3.004459e+08 	
1.20339235e+06 	 2.695389e+02 	 2.933389e+08 	
1.20343805e+06 	 2.420810e+02 	 2.864238e+08 	
1.20348374e+06 	 2.173968e+02 	 2.796991e+08 	
1.20352944e+06 	 1.952175e+02 	 2.731629e+08 	
1.20357513e+06 	 1.752987e+02 	 2.668135e+08 	
1.20361974e+06 	 1.578206e+02 	 2.607931e+08 	
1.20366435e+06 	 1.420966e+02 	 2.549467e+08 	
1.20370896e+06 	 1.279553e+02 	 2.492722e+08 	
1.20375357e+06 	 1.152413e+02 	 2.437672e+08 	
1.20379818e+06 	 1.038136e+02 	 2.384294e+08 	
1.20384279e+06 	 9.354407e+01 	 2.332563e+08 	
1.20388740e+06 	 8.431703e+01 	 2.282453e+08 	
1.20393201e+06 	 7.602765e+01 	 2.233936e+08 	
1.20397662e+06 	 6.858123e+01 	 2.186984e+08 	
1.20402123e+06 	 6.189228e+01 	 2.141569e+08 	
1.20406584e+06 	 5.588366e+01 	 2.097660e+08 	
1.20411045e+06 	 5.048586e+01 	 2.055226e+08 	
1.20415506e+06 	 4.563627e+01 	 2.014236e+08 	
1.20419967e+06 	 4.127854e+01 	 1.974658e+08 	
1.20424427e+06 	 3.736200e+01 	 1.936459e+08 	
1.20428888e+06 	 3.384114e+01 	 1.899607e+08 	
1.20433349e+06 	 3.067506e+01 	 1.864067e+08 	
1.20437810e+06 	 2.782705e+01 	 1.829805e+08 	
1.20442271e+06 	 2.526421e+01 	 1.796788e+08 	
1.20446949e+06 	 2.285107e+01 	 1.763468e+08 	
1.20451626e+06 	 2.068858e+01 	 1.731438e+08 	
1.20456304e+06 	 1.874963e+01 	 1.700660e+08 	
1.20460981e+06 	 1.701008e+01 	 1.671094e+08 	
1.20465658e+06 	 1.544841e+01 	 1.642700e+08 	
1.20470336e+06 	 1.404548e+01 	 1.615439e+08 	
1.20475013e+06 	 1.278424e+01 	 1.589274e+08 	
1.20479691e+06 	 1.164951e+01 	 1.564164e+08 	
1.20484368e+06 	 1.062780e+01 	 1.540073e+08 	
1.20489046e+06 	 9.707082e+00 	 1.516963e+08 	
1.20495126e+06 	 8.643769e+00 	 1.488330e+08 	
1.20501206e+06 	 7.712574e+00 	 1.461215e+08 	
1.20507286e+06 	 6.895802e+00 	 1.435542e+08 	
1.20513366e+06 	 6.178237e+00 	 1.411236e+08 	
1.20519446e+06 	 5.546780e+00 	 1.388227e+08 	
1.20525527e+06 	 4.990155e+00 	 1.366445e+08 	
1.20531607e+06 	 4.498643e+00 	 1.345825e+08 	
1.20537687e+06 	 4.063865e+00 	 1.326302e+08 	
1.20543767e+06 	 3.678586e+00 	 1.307816e+08 	
1.20549847e+06 	 3.336559e+00 	 1.290308e+08 	
1.20555928e+06 	 3.032378e+00 	 1.273724e+08 	
1.20562008e+06 	 2.761366e+00 	 1.258011e+08 	
1.20568088e+06 	 2.519467e+00 	 1.243118e+08 	
1.20574168e+06 	 2.303162e+00 	 1.228999e+08 	
1.20580248e+06 	 2.109394e+00 	 1.215608e+08 	
1.20587526e+06 	 1.903397e+00 	 1.200479e+08 	
1.20594803e+06 	 1.721966e+00 	 1.186266e+08 	
1.20602080e+06 	 1.561767e+00 	 1.172903e+08 	
1.20609358e+06 	 1.419960e+00 	 1.160332e+08 	
1.20616635e+06 	 1.294125e+00 	 1.148498e+08 	
1.20623913e+06 	 1.182190e+00 	 1.137350e+08 	
1.20631190e+06 	 1.082384e+00 	 1.126840e+08 	
1.20638467e+06 	 9.931826e-01 	 1.116924e+08 	
1.20648234e+06 	 8.878729e-01 	 1.104479e+08 	
1.20658000e+06 	 7.966570e-01 	 1.092941e+08 	
1.20667767e+06 	 7.173389e-01 	 1.082228e+08 	
1.20677533e+06 	 6.481048e-01 	 1.072267e+08 	
1.20687300e+06 	 5.874505e-01 	 1.062992e+08 	
1.20697066e+06 	 5.341240e-01 	 1.054343e+08 	
1.20709376e+06 	 4.757449e-01 	 1.044250e+08 	
1.20721687e+06 	 4.256371e-01 	 1.034971e+08 	
1.20733997e+06 	 3.824133e-01 	 1.026420e+08 	
1.20746307e+06 	 3.449495e-01 	 1.018524e+08 	
1.20758617e+06 	 3.123301e-01 	 1.011216e+08 	
1.20773526e+06 	 2.782461e-01 	 1.003071e+08 	
1.20788436e+06 	 2.490979e-01 	 9.956152e+07 	
1.20803345e+06 	 2.240280e-01 	 9.887703e+07 	
1.20818254e+06 	 2.023493e-01 	 9.824689e+07 	
1.20833163e+06 	 1.835073e-01 	 9.766526e+07 	
1.20854825e+06 	 1.602820e-01 	 9.689630e+07 	
1.20876488e+06 	 1.410255e-01 	 9.620578e+07 	
1.20898150e+06 	 1.249191e-01 	 9.558271e+07 	
1.20919812e+06 	 1.113377e-01 	 9.501795e+07 	
1.20945825e+06 	 9.769367e-02 	 9.440613e+07 	
1.20971837e+06 	 8.636375e-02 	 9.385647e+07 	
1.20997849e+06 	 7.686916e-02 	 9.336002e+07 	
1.21023862e+06 	 6.884563e-02 	 9.290937e+07 	
1.21062090e+06 	 5.915100e-02 	 9.231765e+07 	
1.21100318e+06 	 5.138025e-02 	 9.179618e+07 	
1.21138546e+06 	 4.506703e-02 	 9.133280e+07 	
1.21192217e+06 	 3.803819e-02 	 9.076226e+07 	
1.21245889e+06 	 3.258580e-02 	 9.026727e+07 	
1.21299560e+06 	 2.827801e-02 	 8.983276e+07 	
1.21361219e+06 	 2.436378e-02 	 8.939363e+07 	
1.21422878e+06 	 2.126569e-02 	 8.900637e+07 	
1.21484536e+06 	 1.877352e-02 	 8.866121e+07 	
1.21578069e+06 	 1.583271e-02 	 8.820167e+07 	
1.21671602e+06 	 1.361215e-02 	 8.780282e+07 	
1.21781693e+06 	 1.163197e-02 	 8.739292e+07 	
1.21891785e+06 	 1.012814e-02 	 8.703278e+07 	
1.22001876e+06 	 8.959146e-03 	 8.671137e+07 	
1.22170048e+06 	 7.618722e-03 	 8.627763e+07 	
1.22273473e+06 	 6.984405e-03 	 8.603781e+07 	
1.22484354e+06 	 5.994860e-03 	 8.559683e+07 	
1.22659510e+06 	 5.389944e-03 	 8.526839e+07 	
1.22942443e+06 	 4.680127e-03 	 8.479049e+07 	
1.23111137e+06 	 4.364579e-03 	 8.452903e+07 	
1.23469249e+06 	 3.867133e-03 	 8.401622e+07 	
1.23760599e+06 	 3.579089e-03 	 8.363068e+07 	
1.24239632e+06 	 3.244742e-03 	 8.303973e+07 	
1.24612134e+06 	 3.061199e-03 	 8.260677e+07 	
1.25291857e+06 	 2.826987e-03 	 8.185746e+07 	
1.25566746e+06 	 2.756171e-03 	 8.156552e+07 	
1.26417874e+06 	 2.587963e-03 	 8.069043e+07 	
1.26972684e+06 	 2.504655e-03 	 8.013815e+07 	
1.28208602e+06 	 2.357774e-03 	 7.894574e+07 	
1.28866140e+06 	 2.292185e-03 	 7.832884e+07 	
1.30753019e+06 	 2.128241e-03 	 7.661458e+07 	
1.31795950e+06 	 2.047201e-03 	 7.569921e+07 	
1.32129598e+06 	 2.022318e-03 	 7.541090e+07 	
1.32162963e+06 	 2.019855e-03 	 7.538218e+07 	
1.32166300e+06 	 2.019609e-03 	 7.537931e+07 	
1.32166633e+06 	 2.019585e-03 	 7.537903e+07 	
1.32166667e+06 	 2.019582e-03 	 7.537900e+07 	
1.34333333e+06 	 1.868365e-03 	 7.355891e+07 	
1.36500000e+06 	 1.732125e-03 	 7.182189e+07 	
1.38666667e+06 	 1.608545e-03 	 7.016216e+07 	
1.40833333e+06 	 1.496187e-03 	 6.857475e+07 	
1.43000000e+06 	 1.393893e-03 	 6.705516e+07 	
1.46250000e+06 	 1.256664e-03 	 6.489364e+07 	
1.48416667e+06 	 1.174793e-03 	 6.352579e+07 	
1.50583333e+06 	 1.099703e-03 	 6.221247e+07 	
1.52750000e+06 	 1.030695e-03 	 6.095051e+07 	
1.54916667e+06 	 9.672177e-04 	 5.973705e+07 	
1.57083333e+06 	 9.087271e-04 	 5.856939e+07 	
1.59250000e+06 	 8.547144e-04 	 5.744499e+07 	
1.62500000e+06 	 7.812752e-04 	 5.583455e+07 	
1.64666667e+06 	 7.367924e-04 	 5.480855e+07 	
1.66833333e+06 	 6.955653e-04 	 5.381843e+07 	
1.69000000e+06 	 6.572627e-04 	 5.286232e+07 	
1.72250000e+06 	 6.047945e-04 	 5.148829e+07 	
1.74416667e+06 	 5.728255e-04 	 5.061012e+07 	
1.76583333e+06 	 5.430122e-04 	 4.976050e+07 	
1.79833333e+06 	 5.019365e-04 	 4.853667e+07 	
1.82000000e+06 	 4.767849e-04 	 4.775275e+07 	
1.85250000e+06 	 4.420286e-04 	 4.662189e+07 	
1.87416667e+06 	 4.206740e-04 	 4.589645e+07 	
1.90666667e+06 	 3.910824e-04 	 4.484852e+07 	
1.92833333e+06 	 3.728412e-04 	 4.417537e+07 	
1.96083333e+06 	 3.475224e-04 	 4.320177e+07 	
1.98250000e+06 	 3.318781e-04 	 4.257559e+07 	
2.01500000e+06 	 3.100648e-04 	 4.166874e+07 	
2.03666667e+06 	 2.965480e-04 	 4.108481e+07 	
2.06916667e+06 	 2.776900e-04 	 4.023827e+07 	
2.10166667e+06 	 2.603637e-04 	 3.942511e+07 	
2.12333333e+06 	 2.495971e-04 	 3.890062e+07 	
2.15583333e+06 	 2.344975e-04 	 3.813894e+07 	
2.18833333e+06 	 2.205616e-04 	 3.740586e+07 	
2.21000000e+06 	 2.118674e-04 	 3.693227e+07 	
2.24250000e+06 	 1.996527e-04 	 3.624353e+07 	
2.27500000e+06 	 1.883325e-04 	 3.557947e+07 	
2.30750000e+06 	 1.778373e-04 	 3.493886e+07 	
2.34000000e+06 	 1.680968e-04 	 3.432051e+07 	
2.37250000e+06 	 1.590369e-04 	 3.372327e+07 	
2.40500000e+06 	 1.506047e-04 	 3.314611e+07 	
2.43750000e+06 	 1.427496e-04 	 3.258806e+07 	
2.47000000e+06 	 1.354200e-04 	 3.204820e+07 	
2.50250000e+06 	 1.285740e-04 	 3.152567e+07 	
2.53500000e+06 	 1.221726e-04 	 3.101967e+07 	
2.56750000e+06 	 1.161830e-04 	 3.052944e+07 	
2.60000000e+06 	 1.105704e-04 	 3.005426e+07 	
2.63250000e+06 	 1.053085e-04 	 2.959348e+07 	
2.66500000e+06 	 1.003690e-04 	 2.914646e+07 	
2.69750000e+06 	 9.572810e-05 	 2.871259e+07 	
2.73000000e+06 	 9.136377e-05 	 2.829133e+07 	
2.76250000e+06 	 8.725641e-05 	 2.788213e+07 	
2.79500000e+06 	 8.338752e-05 	 2.748451e+07 	
2.82750000e+06 	 7.974118e-05 	 2.709799e+07 	
2.86000000e+06 	 7.630054e-05 	 2.672211e+07 	
2.89250000e+06 	 7.305167e-05 	 2.635645e+07 	
2.92500000e+06 	 6.998133e-05 	 2.600061e+07 	
2.95750000e+06 	 6.707845e-05 	 2.565421e+07 	
2.99000000e+06 	 6.433130e-05 	 2.531688e+07 	
3.02250000e+06 	 6.172964e-05 	 2.498827e+07 	
3.05500000e+06 	 5.926448e-05 	 2.466807e+07 	
3.08750000e+06 	 5.692681e-05 	 2.435595e+07 	
3.12000000e+06 	 5.470869e-05 	 2.405163e+07 	
3.15250000e+06 	 5.260255e-05 	 2.375482e+07 	
3.18500000e+06 	 5.060150e-05 	 2.346525e+07 	
3.21750000e+06 	 4.869912e-05 	 2.318266e+07 	
3.25000000e+06 	 4.688964e-05 	 2.290681e+07 	
3.28250000e+06 	 4.516738e-05 	 2.263746e+07 	
3.31500000e+06 	 4.352727e-05 	 2.237440e+07 	
3.34750000e+06 	 4.196444e-05 	 2.211741e+07 	
3.38000000e+06 	 4.047445e-05 	 2.186628e+07 	
3.41250000e+06 	 3.905314e-05 	 2.162083e+07 	
3.44500000e+06 	 3.769674e-05 	 2.138086e+07 	
3.47750000e+06 	 3.640148e-05 	 2.114620e+07 	
3.51000000e+06 	 3.516413e-05 	 2.091667e+07 	
3.54250000e+06 	 3.398143e-05 	 2.069212e+07 	
3.57500000e+06 	 3.285041e-05 	 2.047239e+07 	
3.60750000e+06 	 3.176830e-05 	 2.025732e+07 	
3.64000000e+06 	 3.073259e-05 	 2.004677e+07 	
3.67250000e+06 	 2.974077e-05 	 1.984060e+07 	
3.70500000e+06 	 2.879056e-05 	 1.963869e+07 	
3.73750000e+06 	 2.787983e-05 	 1.944090e+07 	
3.77000000e+06 	 2.700658e-05 	 1.924711e+07 	
3.80250000e+06 	 2.616891e-05 	 1.905720e+07 	
3.83500000e+06 	 2.536505e-05 	 1.887107e+07 	
3.86750000e+06 	 2.459330e-05 	 1.868859e+07 	
3.90000000e+06 	 2.385209e-05 	 1.850967e+07 	
3.93250000e+06 	 2.313993e-05 	 1.833421e+07 	
3.96500000e+06 	 2.245545e-05 	 1.816210e+07 	
3.99750000e+06 	 2.179731e-05 	 1.799326e+07 	
4.03000000e+06 	 2.116425e-05 	 1.782759e+07 	
4.06250000e+06 	 2.055510e-05 	 1.766500e+07 	
4.09500000e+06 	 1.996877e-05 	 1.750543e+07 	
4.12750000e+06 	 1.940419e-05 	 1.734877e+07 	
4.16000000e+06 	 1.886037e-05 	 1.719496e+07 	
4.19250000e+06 	 1.833637e-05 	 1.704392e+07 	
4.22500000e+06 	 1.783130e-05 	 1.689557e+07 	
4.25750000e+06 	 1.734431e-05 	 1.674985e+07 	
4.29000000e+06 	 1.687461e-05 	 1.660669e+07 	
4.32250000e+06 	 1.642145e-05 	 1.646602e+07 	
4.35500000e+06 	 1.598410e-05 	 1.632779e+07 	
4.38750000e+06 	 1.556189e-05 	 1.619192e+07 	
4.42000000e+06 	 1.515417e-05 	 1.605836e+07 	
4.45250000e+06 	 1.476033e-05 	 1.592705e+07 	
4.48500000e+06 	 1.437977e-05 	 1.579794e+07 	
4.51750000e+06 	 1.401195e-05 	 1.567097e+07 	
4.55000000e+06 	 1.365635e-05 	 1.554610e+07 	
4.58250000e+06 	 1.331246e-05 	 1.542326e+07 	
4.61500000e+06 	 1.297981e-05 	 1.530242e+07 	
4.64750000e+06 	 1.265793e-05 	 1.518352e+07 	
4.68000000e+06 	 1.234641e-05 	 1.506653e+07 	
4.71250000e+06 	 1.204482e-05 	 1.495139e+07 	
4.74500000e+06 	 1.175278e-05 	 1.483806e+07 	
4.77750000e+06 	 1.146992e-05 	 1.472650e+07 	
4.81000000e+06 	 1.119587e-05 	 1.461667e+07 	
4.84250000e+06 	 1.093029e-05 	 1.450853e+07 	
4.87500000e+06 	 1.067288e-05 	 1.440205e+07 	
4.90750000e+06 	 1.042330e-05 	 1.429718e+07 	
4.94000000e+06 	 1.018127e-05 	 1.419389e+07 	
4.97250000e+06 	 9.946503e-06 	 1.409215e+07 	
5.00500000e+06 	 9.718732e-06 	 1.399192e+07 	
5.03750000e+06 	 9.497696e-06 	 1.389317e+07 	
5.07000000e+06 	 9.283151e-06 	 1.379587e+07 	
5.10250000e+06 	 9.074860e-06 	 1.369998e+07 	
5.13500000e+06 	 8.872595e-06 	 1.360548e+07 	
5.16750000e+06 	 8.676141e-06 	 1.351234e+07 	
5.20000000e+06 	 8.485293e-06 	 1.342052e+07 	
5.23250000e+06 	 8.299850e-06 	 1.333001e+07 	
5.26500000e+06 	 8.119623e-06 	 1.324077e+07 	
5.29750000e+06 	 7.944431e-06 	 1.315277e+07 	
5.33000000e+06 	 7.774098e-06 	 1.306600e+07 	
5.36250000e+06 	 7.608457e-06 	 1.298043e+07 	
5.39500000e+06 	 7.447350e-06 	 1.289603e+07 	
5.42750000e+06 	 7.290620e-06 	 1.281278e+07 	
5.46000000e+06 	 7.138120e-06 	 1.273066e+07 	
5.49250000e+06 	 6.989709e-06 	 1.264964e+07 	
5.52500000e+06 	 6.845250e-06 	 1.256970e+07 	
5.55750000e+06 	 6.704613e-06 	 1.249083e+07 	
5.59000000e+06 	 6.567672e-06 	 1.241299e+07 	
5.62250000e+06 	 6.434306e-06 	 1.233618e+07 	
5.65500000e+06 	 6.304400e-06 	 1.226037e+07 	
5.68750000e+06 	 6.177842e-06 	 1.218554e+07 	
5.72000000e+06 	 6.054524e-06 	 1.211168e+07 	
5.75250000e+06 	 5.934344e-06 	 1.203876e+07 	
5.78500000e+06 	 5.817202e-06 	 1.196677e+07 	
5.81750000e+06 	 5.703002e-06 	 1.189569e+07 	
5.85000000e+06 	 5.591653e-06 	 1.182550e+07 	
5.88250000e+06 	 5.483066e-06 	 1.175619e+07 	
5.91500000e+06 	 5.377157e-06 	 1.168774e+07 	
5.94750000e+06 	 5.273841e-06 	 1.162014e+07 	
5.98000000e+06 	 5.173042e-06 	 1.155337e+07 	
6.01250000e+06 	 5.074682e-06 	 1.148741e+07 	
6.04500000e+06 	 4.978687e-06 	 1.142226e+07 	
6.07750000e+06 	 4.884988e-06 	 1.135789e+07 	
6.11000000e+06 	 4.793515e-06 	 1.129429e+07 	
6.14250000e+06 	 4.704204e-06 	 1.123146e+07 	
6.17500000e+06 	 4.616989e-06 	 1.116937e+07 	
6.20750000e+06 	 4.531810e-06 	 1.110801e+07 	
6.24000000e+06 	 4.448608e-06 	 1.104737e+07 	
6.27250000e+06 	 4.367325e-06 	 1.098744e+07 	
6.30500000e+06 	 4.287906e-06 	 1.092821e+07 	
6.33750000e+06 	 4.210299e-06 	 1.086966e+07 	
6.37000000e+06 	 4.134450e-06 	 1.081178e+07 	
6.40250000e+06 	 4.060313e-06 	 1.075457e+07 	
6.43500000e+06 	 3.987836e-06 	 1.069801e+07 	
6.50000000e+06 	 3.847684e-06 	 1.058678e+07 	
6.50050050e+06 	 3.846629e-06 	 1.058594e+07 	
6.50100100e+06 	 3.845575e-06 	 1.058509e+07 	
6.50150150e+06 	 3.844520e-06 	 1.058424e+07 	
6.50200200e+06 	 3.843466e-06 	 1.058340e+07 	
6.50250250e+06 	 3.842413e-06 	 1.058255e+07 	
6.50300300e+06 	 3.841359e-06 	 1.058171e+07 	
6.50350350e+06 	 3.840307e-06 	 1.058086e+07 	
6.50400400e+06 	 3.839254e-06 	 1.058001e+07 	
6.50450450e+06 	 3.838202e-06 	 1.057917e+07 	
6.50500501e+06 	 3.837150e-06 	 1.057832e+07 	
6.50550551e+06 	 3.836099e-06 	 1.057748e+07 	
6.50600601e+06 	 3.835048e-06 	 1.057663e+07 	
6.50650651e+06 	 3.833997e-06 	 1.057579e+07 	
6.50700701e+06 	 3.832947e-06 	 1.057494e+07 	
6.50750751e+06 	 3.831897e-06 	 1.057410e+07 	
6.50800801e+06 	 3.830847e-06 	 1.057325e+07 	
6.50850851e+06 	 3.829798e-06 	 1.057241e+07 	
6.50900901e+06 	 3.828749e-06 	 1.057157e+07 	
6.50950951e+06 	 3.827700e-06 	 1.057072e+07 	
6.51001001e+06 	 3.826652e-06 	 1.056988e+07 	
6.51051051e+06 	 3.825604e-06 	 1.056903e+07 	
6.51101101e+06 	 3.824557e-06 	 1.056819e+07 	
6.51151151e+06 	 3.823510e-06 	 1.056735e+07 	
6.51201201e+06 	 3.822463e-06 	 1.056650e+07 	
6.51251251e+06 	 3.821417e-06 	 1.056566e+07 	
6.51301301e+06 	 3.820371e-06 	 1.056482e+07 	
6.51351351e+06 	 3.819325e-06 	 1.056397e+07 	
6.51401401e+06 	 3.818280e-06 	 1.056313e+07 	
6.51451451e+06 	 3.817235e-06 	 1.056229e+07 	
6.51501502e+06 	 3.816190e-06 	 1.056145e+07 	
6.51551552e+06 	 3.815146e-06 	 1.056060e+07 	
6.51601602e+06 	 3.814102e-06 	 1.055976e+07 	
6.51651652e+06 	 3.813058e-06 	 1.055892e+07 	
6.51701702e+06 	 3.812015e-06 	 1.055808e+07 	
6.51751752e+06 	 3.810972e-06 	 1.055724e+07 	
6.51801802e+06 	 3.809930e-06 	 1.055639e+07 	
6.51851852e+06 	 3.808888e-06 	 1.055555e+07 	
6.51901902e+06 	 3.807846e-06 	 1.055471e+07 	
6.51951952e+06 	 3.806805e-06 	 1.055387e+07 	
6.52002002e+06 	 3.805764e-06 	 1.055303e+07 	
6.52052052e+06 	 3.804723e-06 	 1.055219e+07 	
6.52102102e+06 	 3.803683e-06 	 1.055135e+07 	
6.52152152e+06 	 3.802643e-06 	 1.055051e+07 	
6.52202202e+06 	 3.801603e-06 	 1.054967e+07 	
6.52252252e+06 	 3.800564e-06 	 1.054883e+07 	
6.52302302e+06 	 3.799525e-06 	 1.054799e+07 	
6.52352352e+06 	 3.798486e-06 	 1.054715e+07 	
6.52402402e+06 	 3.797448e-06 	 1.054631e+07 	
6.52452452e+06 	 3.796410e-06 	 1.054547e+07 	
6.52502503e+06 	 3.795373e-06 	 1.054463e+07 	
6.52552553e+06 	 3.794336e-06 	 1.054379e+07 	
6.52602603e+06 	 3.793299e-06 	 1.054295e+07 	
6.52652653e+06 	 3.792262e-06 	 1.054211e+07 	
6.52702703e+06 	 3.791226e-06 	 1.054127e+07 	
6.52752753e+06 	 3.790191e-06 	 1.054043e+07 	
6.52802803e+06 	 3.789155e-06 	 1.053959e+07 	
6.52852853e+06 	 3.788120e-06 	 1.053875e+07 	
6.52902903e+06 	 3.787086e-06 	 1.053792e+07 	
6.52952953e+06 	 3.786051e-06 	 1.053708e+07 	
6.53003003e+06 	 3.785017e-06 	 1.053624e+07 	
6.53053053e+06 	 3.783984e-06 	 1.053540e+07 	
6.53103103e+06 	 3.782950e-06 	 1.053456e+07 	
6.53153153e+06 	 3.781918e-06 	 1.053373e+07 	
6.53203203e+06 	 3.780885e-06 	 1.053289e+07 	
6.53253253e+06 	 3.779853e-06 	 1.053205e+07 	
6.53303303e+06 	 3.778821e-06 	 1.053121e+07 	
6.53353353e+06 	 3.777790e-06 	 1.053038e+07 	
6.53403403e+06 	 3.776758e-06 	 1.052954e+07 	
6.53453453e+06 	 3.775728e-06 	 1.052870e+07 	
6.53503504e+06 	 3.774697e-06 	 1.052787e+07 	
6.53553554e+06 	 3.773667e-06 	 1.052703e+07 	
6.53603604e+06 	 3.772637e-06 	 1.052619e+07 	
6.53653654e+06 	 3.771608e-06 	 1.052536e+07 	
6.53703704e+06 	 3.770579e-06 	 1.052452e+07 	
6.53753754e+06 	 3.769550e-06 	 1.052369e+07 	
6.53803804e+06 	 3.768522e-06 	 1.052285e+07 	
6.53853854e+06 	 3.767494e-06 	 1.052201e+07 	
6.53903904e+06 	 3.766466e-06 	 1.052118e+07 	
6.53953954e+06 	 3.765439e-06 	 1.052034e+07 	
6.54004004e+06 	 3.764412e-06 	 1.051951e+07 	
6.54054054e+06 	 3.763386e-06 	 1.051867e+07 	
6.54104104e+06 	 3.762359e-06 	 1.051784e+07 	
6.54154154e+06 	 3.761334e-06 	 1.051700e+07 	
6.54204204e+06 	 3.760308e-06 	 1.051617e+07 	
6.54254254e+06 	 3.759283e-06 	 1.051533e+07 	
6.54304304e+06 	 3.758258e-06 	 1.051450e+07 	
6.54354354e+06 	 3.757234e-06 	 1.051367e+07 	
6.54404404e+06 	 3.756209e-06 	 1.051283e+07 	
6.54454454e+06 	 3.755186e-06 	 1.051200e+07 	
6.54504505e+06 	 3.754162e-06 	 1.051116e+07 	
