r (cm)        	 rho (g/cm3) 	 T (K)       		 Linf = 3.544209e+38
1.20000485e+06 	 1.187338e+05 	 1.272871e+09 	
1.20009500e+06 	 1.056517e+05 	 1.236067e+09 	
1.20019256e+06 	 9.287509e+04 	 1.196703e+09 	
1.20029013e+06 	 8.142165e+04 	 1.157841e+09 	
1.20038770e+06 	 7.118111e+04 	 1.119495e+09 	
1.20048526e+06 	 6.204971e+04 	 1.081682e+09 	
1.20058283e+06 	 5.393002e+04 	 1.044419e+09 	
1.20067690e+06 	 4.697381e+04 	 1.009026e+09 	
1.20077097e+06 	 4.079665e+04 	 9.741736e+08 	
1.20086504e+06 	 3.532697e+04 	 9.398782e+08 	
1.20095911e+06 	 3.049801e+04 	 9.061555e+08 	
1.20103733e+06 	 2.692589e+04 	 8.785631e+08 	
1.20111555e+06 	 2.372039e+04 	 8.513872e+08 	
1.20119377e+06 	 2.085025e+04 	 8.246374e+08 	
1.20127199e+06 	 1.828621e+04 	 7.983233e+08 	
1.20135021e+06 	 1.600094e+04 	 7.724546e+08 	
1.20142682e+06 	 1.400844e+04 	 7.475604e+08 	
1.20150342e+06 	 1.223661e+04 	 7.231118e+08 	
1.20158003e+06 	 1.066472e+04 	 6.991180e+08 	
1.20165663e+06 	 9.273576e+03 	 6.755880e+08 	
1.20172046e+06 	 8.239683e+03 	 6.563438e+08 	
1.20178429e+06 	 7.309365e+03 	 6.374329e+08 	
1.20184811e+06 	 6.473714e+03 	 6.188602e+08 	
1.20191194e+06 	 5.724427e+03 	 6.006307e+08 	
1.20197577e+06 	 5.053781e+03 	 5.827492e+08 	
1.20203960e+06 	 4.454608e+03 	 5.652202e+08 	
1.20210433e+06 	 3.913132e+03 	 5.478077e+08 	
1.20216906e+06 	 3.431934e+03 	 5.307668e+08 	
1.20223379e+06 	 3.005114e+03 	 5.141020e+08 	
1.20228760e+06 	 2.687773e+03 	 5.005373e+08 	
1.20234141e+06 	 2.401373e+03 	 4.872373e+08 	
1.20239522e+06 	 2.143235e+03 	 4.742040e+08 	
1.20244903e+06 	 1.910877e+03 	 4.614393e+08 	
1.20250285e+06 	 1.701995e+03 	 4.489448e+08 	
1.20255666e+06 	 1.514462e+03 	 4.367219e+08 	
1.20261047e+06 	 1.346312e+03 	 4.247721e+08 	
1.20266428e+06 	 1.195733e+03 	 4.130964e+08 	
1.20272114e+06 	 1.053885e+03 	 4.010589e+08 	
1.20276833e+06 	 9.483302e+02 	 3.913005e+08 	
1.20281553e+06 	 8.528202e+02 	 3.817545e+08 	
1.20286272e+06 	 7.664783e+02 	 3.724209e+08 	
1.20290992e+06 	 6.884948e+02 	 3.632998e+08 	
1.20295711e+06 	 6.181229e+02 	 3.543910e+08 	
1.20300431e+06 	 5.546741e+02 	 3.456942e+08 	
1.20305150e+06 	 4.975153e+02 	 3.372090e+08 	
1.20309870e+06 	 4.460645e+02 	 3.289346e+08 	
1.20314589e+06 	 3.997879e+02 	 3.208703e+08 	
1.20319309e+06 	 3.581965e+02 	 3.130151e+08 	
1.20324028e+06 	 3.208428e+02 	 3.053679e+08 	
1.20328748e+06 	 2.873179e+02 	 2.979273e+08 	
1.20333183e+06 	 2.589658e+02 	 2.911212e+08 	
1.20337619e+06 	 2.333833e+02 	 2.844949e+08 	
1.20342055e+06 	 2.103115e+02 	 2.780469e+08 	
1.20346490e+06 	 1.895139e+02 	 2.717756e+08 	
1.20350926e+06 	 1.707743e+02 	 2.656792e+08 	
1.20355362e+06 	 1.538960e+02 	 2.597558e+08 	
1.20359798e+06 	 1.386994e+02 	 2.540034e+08 	
1.20364233e+06 	 1.250214e+02 	 2.484198e+08 	
1.20368669e+06 	 1.127136e+02 	 2.430028e+08 	
1.20373105e+06 	 1.016414e+02 	 2.377499e+08 	
1.20377540e+06 	 9.168275e+01 	 2.326587e+08 	
1.20381976e+06 	 8.272691e+01 	 2.277266e+08 	
1.20386412e+06 	 7.467379e+01 	 2.229509e+08 	
1.20390847e+06 	 6.743284e+01 	 2.183287e+08 	
1.20395283e+06 	 6.092224e+01 	 2.138573e+08 	
1.20399719e+06 	 5.506818e+01 	 2.095336e+08 	
1.20404154e+06 	 4.980403e+01 	 2.053546e+08 	
1.20408590e+06 	 4.506980e+01 	 2.013172e+08 	
1.20413026e+06 	 4.081144e+01 	 1.974183e+08 	
1.20418054e+06 	 3.649826e+01 	 1.931617e+08 	
1.20423083e+06 	 3.267098e+01 	 1.890741e+08 	
1.20428111e+06 	 2.927354e+01 	 1.851507e+08 	
1.20433140e+06 	 2.625626e+01 	 1.813867e+08 	
1.20438168e+06 	 2.357524e+01 	 1.777772e+08 	
1.20443197e+06 	 2.119162e+01 	 1.743172e+08 	
1.20448225e+06 	 1.907107e+01 	 1.710019e+08 	
1.20453254e+06 	 1.718326e+01 	 1.678264e+08 	
1.20458282e+06 	 1.550138e+01 	 1.647858e+08 	
1.20463311e+06 	 1.400180e+01 	 1.618753e+08 	
1.20468339e+06 	 1.266362e+01 	 1.590900e+08 	
1.20473368e+06 	 1.146842e+01 	 1.564253e+08 	
1.20478396e+06 	 1.039993e+01 	 1.538766e+08 	
1.20483425e+06 	 9.443786e+00 	 1.514392e+08 	
1.20488453e+06 	 8.587320e+00 	 1.491086e+08 	
1.20493482e+06 	 7.819342e+00 	 1.468805e+08 	
1.20498510e+06 	 7.129972e+00 	 1.447507e+08 	
1.20503538e+06 	 6.510483e+00 	 1.427148e+08 	
1.20508567e+06 	 5.953168e+00 	 1.407689e+08 	
1.20514885e+06 	 5.330615e+00 	 1.384453e+08 	
1.20521204e+06 	 4.783744e+00 	 1.362499e+08 	
1.20527522e+06 	 4.302453e+00 	 1.341756e+08 	
1.20533841e+06 	 3.878071e+00 	 1.322155e+08 	
1.20540159e+06 	 3.503149e+00 	 1.303629e+08 	
1.20546478e+06 	 3.171281e+00 	 1.286116e+08 	
1.20552796e+06 	 2.876952e+00 	 1.269555e+08 	
1.20559115e+06 	 2.615406e+00 	 1.253892e+08 	
1.20565433e+06 	 2.382539e+00 	 1.239071e+08 	
1.20571752e+06 	 2.174803e+00 	 1.225042e+08 	
1.20579722e+06 	 1.943875e+00 	 1.208402e+08 	
1.20587693e+06 	 1.742834e+00 	 1.192857e+08 	
1.20595664e+06 	 1.567281e+00 	 1.178325e+08 	
1.20603634e+06 	 1.413529e+00 	 1.164728e+08 	
1.20611605e+06 	 1.278476e+00 	 1.151997e+08 	
1.20619576e+06 	 1.159505e+00 	 1.140065e+08 	
1.20627546e+06 	 1.054406e+00 	 1.128873e+08 	
1.20635517e+06 	 9.613041e-01 	 1.118365e+08 	
1.20643488e+06 	 8.786069e-01 	 1.108490e+08 	
1.20653874e+06 	 7.842413e-01 	 1.096495e+08 	
1.20664261e+06 	 7.027490e-01 	 1.085402e+08 	
1.20674647e+06 	 6.320770e-01 	 1.075125e+08 	
1.20685034e+06 	 5.705394e-01 	 1.065590e+08 	
1.20695420e+06 	 5.167452e-01 	 1.056728e+08 	
1.20705807e+06 	 4.695423e-01 	 1.048479e+08 	
1.20719151e+06 	 4.170522e-01 	 1.038694e+08 	
1.20732495e+06 	 3.722140e-01 	 1.029728e+08 	
1.20745838e+06 	 3.337029e-01 	 1.021491e+08 	
1.20759182e+06 	 3.004542e-01 	 1.013907e+08 	
1.20772526e+06 	 2.716070e-01 	 1.006906e+08 	
1.20788811e+06 	 2.413580e-01 	 9.990661e+07 	
1.20805095e+06 	 2.156085e-01 	 9.919120e+07 	
1.20821380e+06 	 1.935528e-01 	 9.853629e+07 	
1.20837664e+06 	 1.745510e-01 	 9.793492e+07 	
1.20853949e+06 	 1.580902e-01 	 9.738109e+07 	
1.20878188e+06 	 1.374254e-01 	 9.663378e+07 	
1.20902427e+06 	 1.204307e-01 	 9.596604e+07 	
1.20926666e+06 	 1.063176e-01 	 9.536613e+07 	
1.20950905e+06 	 9.449218e-02 	 9.482437e+07 	
1.20980187e+06 	 8.261976e-02 	 9.423619e+07 	
1.21009470e+06 	 7.282915e-02 	 9.370978e+07 	
1.21038752e+06 	 6.467411e-02 	 9.323584e+07 	
1.21068034e+06 	 5.781909e-02 	 9.280676e+07 	
1.21112106e+06 	 4.940653e-02 	 9.223213e+07 	
1.21156177e+06 	 4.273609e-02 	 9.172832e+07 	
1.21200248e+06 	 3.736664e-02 	 9.128241e+07 	
1.21263528e+06 	 3.132665e-02 	 9.072379e+07 	
1.21326809e+06 	 2.670923e-02 	 9.024188e+07 	
1.21390090e+06 	 2.310512e-02 	 8.982050e+07 	
1.21462831e+06 	 1.986371e-02 	 8.939550e+07 	
1.21535571e+06 	 1.732313e-02 	 8.902123e+07 	
1.21608312e+06 	 1.529601e-02 	 8.868769e+07 	
1.21721497e+06 	 1.287134e-02 	 8.823250e+07 	
1.21834682e+06 	 1.106760e-02 	 8.783755e+07 	
1.21967914e+06 	 9.479614e-03 	 8.743085e+07 	
1.22101145e+06 	 8.287236e-03 	 8.707213e+07 	
1.22234377e+06 	 7.368855e-03 	 8.675032e+07 	
1.22442055e+06 	 6.307634e-03 	 8.630432e+07 	
1.22570771e+06 	 5.808371e-03 	 8.605421e+07 	
1.22833359e+06 	 5.039648e-03 	 8.559038e+07 	
1.23050752e+06 	 4.577897e-03 	 8.524228e+07 	
1.23398915e+06 	 4.046593e-03 	 8.473316e+07 	
1.23677900e+06 	 3.742333e-03 	 8.435673e+07 	
1.24160096e+06 	 3.372306e-03 	 8.375211e+07 	
1.24400022e+06 	 3.237149e-03 	 8.346737e+07 	
1.25005218e+06 	 2.985325e-03 	 8.278263e+07 	
1.25440331e+06 	 2.855965e-03 	 8.231235e+07 	
1.26263389e+06 	 2.678376e-03 	 8.145749e+07 	
1.26809813e+06 	 2.589696e-03 	 8.090861e+07 	
1.27990194e+06 	 2.439785e-03 	 7.975991e+07 	
1.28648540e+06 	 2.370441e-03 	 7.913704e+07 	
1.29500000e+06 	 2.289350e-03 	 7.834749e+07 	
1.31833333e+06 	 2.096089e-03 	 7.626535e+07 	
1.34166667e+06 	 1.927829e-03 	 7.428985e+07 	
1.36500000e+06 	 1.777539e-03 	 7.241145e+07 	
1.38833333e+06 	 1.642266e-03 	 7.062292e+07 	
1.41166667e+06 	 1.520075e-03 	 6.891798e+07 	
1.43500000e+06 	 1.409445e-03 	 6.729100e+07 	
1.45833333e+06 	 1.309018e-03 	 6.573682e+07 	
1.48166667e+06 	 1.217710e-03 	 6.425076e+07 	
1.50500000e+06 	 1.134502e-03 	 6.282850e+07 	
1.52833333e+06 	 1.058508e-03 	 6.146607e+07 	
1.55166667e+06 	 9.890100e-04 	 6.015987e+07 	
1.57500000e+06 	 9.253613e-04 	 5.890656e+07 	
1.59833333e+06 	 8.668891e-04 	 5.770297e+07 	
1.62166667e+06 	 8.131821e-04 	 5.654635e+07 	
1.65666667e+06 	 7.404163e-04 	 5.489362e+07 	
1.68000000e+06 	 6.965846e-04 	 5.384314e+07 	
1.70333333e+06 	 6.560546e-04 	 5.283112e+07 	
1.72666667e+06 	 6.185176e-04 	 5.185550e+07 	
1.76166667e+06 	 5.673410e-04 	 5.045635e+07 	
1.78500000e+06 	 5.362423e-04 	 4.956383e+07 	
1.80833333e+06 	 5.073394e-04 	 4.870165e+07 	
1.84333333e+06 	 4.676624e-04 	 4.746200e+07 	
1.86666667e+06 	 4.434328e-04 	 4.666931e+07 	
1.89000000e+06 	 4.208467e-04 	 4.590219e+07 	
1.92500000e+06 	 3.896589e-04 	 4.479668e+07 	
1.94833333e+06 	 3.705228e-04 	 4.408823e+07 	
1.98333333e+06 	 3.440877e-04 	 4.306591e+07 	
2.00666667e+06 	 3.278211e-04 	 4.240985e+07 	
2.04166667e+06 	 3.052396e-04 	 4.146176e+07 	
2.06500000e+06 	 2.913068e-04 	 4.085254e+07 	
2.10000000e+06 	 2.719268e-04 	 3.997105e+07 	
2.13500000e+06 	 2.541931e-04 	 3.912626e+07 	
2.15833333e+06 	 2.432065e-04 	 3.858236e+07 	
2.19333333e+06 	 2.278703e-04 	 3.779395e+07 	
2.22833333e+06 	 2.137729e-04 	 3.703674e+07 	
2.25166667e+06 	 2.049974e-04 	 3.654835e+07 	
2.28666667e+06 	 1.927124e-04 	 3.583926e+07 	
2.32166667e+06 	 1.813716e-04 	 3.515689e+07 	
2.34500000e+06 	 1.742938e-04 	 3.471611e+07 	
2.38000000e+06 	 1.643410e-04 	 3.407512e+07 	
2.41500000e+06 	 1.551197e-04 	 3.345720e+07 	
2.45000000e+06 	 1.465630e-04 	 3.286115e+07 	
2.48500000e+06 	 1.386176e-04 	 3.228587e+07 	
2.52000000e+06 	 1.312313e-04 	 3.173031e+07 	
2.55500000e+06 	 1.243510e-04 	 3.119347e+07 	
2.59000000e+06 	 1.179379e-04 	 3.067446e+07 	
2.62500000e+06 	 1.119534e-04 	 3.017241e+07 	
2.66000000e+06 	 1.063620e-04 	 2.968653e+07 	
2.69500000e+06 	 1.011323e-04 	 2.921606e+07 	
2.73000000e+06 	 9.623718e-05 	 2.876029e+07 	
2.76500000e+06 	 9.164884e-05 	 2.831856e+07 	
2.80000000e+06 	 8.734413e-05 	 2.789024e+07 	
2.83500000e+06 	 8.330152e-05 	 2.747473e+07 	
2.87000000e+06 	 7.950219e-05 	 2.707149e+07 	
2.90500000e+06 	 7.592817e-05 	 2.667999e+07 	
2.94000000e+06 	 7.256382e-05 	 2.629973e+07 	
2.97500000e+06 	 6.939318e-05 	 2.593025e+07 	
3.01000000e+06 	 6.640246e-05 	 2.557110e+07 	
3.04500000e+06 	 6.358010e-05 	 2.522187e+07 	
3.08000000e+06 	 6.091393e-05 	 2.488215e+07 	
3.11500000e+06 	 5.839333e-05 	 2.455157e+07 	
3.15000000e+06 	 5.600902e-05 	 2.422977e+07 	
3.18500000e+06 	 5.375166e-05 	 2.391642e+07 	
3.22000000e+06 	 5.161303e-05 	 2.361119e+07 	
3.25500000e+06 	 4.958562e-05 	 2.331378e+07 	
3.29000000e+06 	 4.766224e-05 	 2.302390e+07 	
3.32500000e+06 	 4.583634e-05 	 2.274126e+07 	
3.36000000e+06 	 4.410191e-05 	 2.246561e+07 	
3.39500000e+06 	 4.245330e-05 	 2.219669e+07 	
3.43000000e+06 	 4.088541e-05 	 2.193427e+07 	
3.46500000e+06 	 3.939328e-05 	 2.167812e+07 	
3.50000000e+06 	 3.797244e-05 	 2.142802e+07 	
3.53500000e+06 	 3.661875e-05 	 2.118376e+07 	
3.57000000e+06 	 3.532828e-05 	 2.094515e+07 	
3.60500000e+06 	 3.409739e-05 	 2.071199e+07 	
3.64000000e+06 	 3.292275e-05 	 2.048410e+07 	
3.67500000e+06 	 3.180118e-05 	 2.026131e+07 	
3.71000000e+06 	 3.072970e-05 	 2.004345e+07 	
3.74500000e+06 	 2.970565e-05 	 1.983037e+07 	
3.78000000e+06 	 2.872636e-05 	 1.962192e+07 	
3.81500000e+06 	 2.778943e-05 	 1.941793e+07 	
3.85000000e+06 	 2.689265e-05 	 1.921829e+07 	
3.88500000e+06 	 2.603386e-05 	 1.902284e+07 	
3.92000000e+06 	 2.521109e-05 	 1.883147e+07 	
3.95500000e+06 	 2.442251e-05 	 1.864405e+07 	
3.99000000e+06 	 2.366632e-05 	 1.846046e+07 	
4.02500000e+06 	 2.294092e-05 	 1.828059e+07 	
4.06000000e+06 	 2.224475e-05 	 1.810432e+07 	
4.09500000e+06 	 2.157634e-05 	 1.793156e+07 	
4.13000000e+06 	 2.093435e-05 	 1.776219e+07 	
4.16500000e+06 	 2.031749e-05 	 1.759613e+07 	
4.20000000e+06 	 1.972452e-05 	 1.743328e+07 	
4.23500000e+06 	 1.915432e-05 	 1.727355e+07 	
4.27000000e+06 	 1.860581e-05 	 1.711685e+07 	
4.30500000e+06 	 1.807796e-05 	 1.696309e+07 	
4.34000000e+06 	 1.756982e-05 	 1.681220e+07 	
4.37500000e+06 	 1.708047e-05 	 1.666411e+07 	
4.41000000e+06 	 1.660905e-05 	 1.651872e+07 	
4.44500000e+06 	 1.615475e-05 	 1.637598e+07 	
4.48000000e+06 	 1.571681e-05 	 1.623581e+07 	
4.51500000e+06 	 1.529450e-05 	 1.609814e+07 	
4.55000000e+06 	 1.488711e-05 	 1.596291e+07 	
4.58500000e+06 	 1.449401e-05 	 1.583005e+07 	
4.62000000e+06 	 1.411458e-05 	 1.569951e+07 	
4.65500000e+06 	 1.374821e-05 	 1.557123e+07 	
4.69000000e+06 	 1.339435e-05 	 1.544514e+07 	
4.72500000e+06 	 1.305248e-05 	 1.532120e+07 	
4.76000000e+06 	 1.272210e-05 	 1.519935e+07 	
4.79500000e+06 	 1.240271e-05 	 1.507954e+07 	
4.83000000e+06 	 1.209388e-05 	 1.496171e+07 	
4.86500000e+06 	 1.179516e-05 	 1.484583e+07 	
4.90000000e+06 	 1.150615e-05 	 1.473184e+07 	
4.93500000e+06 	 1.122645e-05 	 1.461971e+07 	
4.97000000e+06 	 1.095569e-05 	 1.450937e+07 	
5.00500000e+06 	 1.069352e-05 	 1.440080e+07 	
5.04000000e+06 	 1.043960e-05 	 1.429395e+07 	
5.07500000e+06 	 1.019360e-05 	 1.418879e+07 	
5.11000000e+06 	 9.955229e-06 	 1.408526e+07 	
5.14500000e+06 	 9.724178e-06 	 1.398334e+07 	
5.18000000e+06 	 9.500172e-06 	 1.388299e+07 	
5.21500000e+06 	 9.282943e-06 	 1.378418e+07 	
5.25000000e+06 	 9.072240e-06 	 1.368686e+07 	
5.28500000e+06 	 8.867816e-06 	 1.359102e+07 	
5.32000000e+06 	 8.669438e-06 	 1.349660e+07 	
5.35500000e+06 	 8.476886e-06 	 1.340359e+07 	
5.39000000e+06 	 8.289945e-06 	 1.331195e+07 	
5.42500000e+06 	 8.108411e-06 	 1.322165e+07 	
5.46000000e+06 	 7.932092e-06 	 1.313267e+07 	
5.49500000e+06 	 7.760799e-06 	 1.304497e+07 	
5.53000000e+06 	 7.594354e-06 	 1.295853e+07 	
5.56500000e+06 	 7.432586e-06 	 1.287333e+07 	
5.60000000e+06 	 7.275333e-06 	 1.278933e+07 	
5.63500000e+06 	 7.122436e-06 	 1.270651e+07 	
5.67000000e+06 	 6.973745e-06 	 1.262485e+07 	
5.70500000e+06 	 6.829117e-06 	 1.254432e+07 	
5.74000000e+06 	 6.688412e-06 	 1.246490e+07 	
5.77500000e+06 	 6.551498e-06 	 1.238658e+07 	
5.81000000e+06 	 6.418247e-06 	 1.230931e+07 	
5.84500000e+06 	 6.288538e-06 	 1.223310e+07 	
5.88000000e+06 	 6.162252e-06 	 1.215791e+07 	
5.91500000e+06 	 6.039278e-06 	 1.208372e+07 	
5.95000000e+06 	 5.919506e-06 	 1.201052e+07 	
5.98500000e+06 	 5.802833e-06 	 1.193828e+07 	
6.02000000e+06 	 5.689159e-06 	 1.186699e+07 	
6.05500000e+06 	 5.578387e-06 	 1.179663e+07 	
6.09000000e+06 	 5.470425e-06 	 1.172718e+07 	
6.12500000e+06 	 5.365183e-06 	 1.165862e+07 	
6.16000000e+06 	 5.262577e-06 	 1.159094e+07 	
6.19500000e+06 	 5.162524e-06 	 1.152412e+07 	
6.23000000e+06 	 5.064944e-06 	 1.145815e+07 	
6.26500000e+06 	 4.969761e-06 	 1.139300e+07 	
6.30000000e+06 	 4.876901e-06 	 1.132867e+07 	
6.33500000e+06 	 4.786294e-06 	 1.126514e+07 	
6.37000000e+06 	 4.697872e-06 	 1.120239e+07 	
6.40500000e+06 	 4.611567e-06 	 1.114041e+07 	
6.44000000e+06 	 4.527318e-06 	 1.107919e+07 	
6.47500000e+06 	 4.445063e-06 	 1.101871e+07 	
6.51000000e+06 	 4.364742e-06 	 1.095896e+07 	
6.54500000e+06 	 4.286299e-06 	 1.089992e+07 	
6.58000000e+06 	 4.209679e-06 	 1.084159e+07 	
6.61500000e+06 	 4.134829e-06 	 1.078395e+07 	
6.65000000e+06 	 4.061698e-06 	 1.072700e+07 	
6.68500000e+06 	 3.990237e-06 	 1.067071e+07 	
6.72000000e+06 	 3.920397e-06 	 1.061507e+07 	
6.75500000e+06 	 3.852133e-06 	 1.056008e+07 	
6.79000000e+06 	 3.785400e-06 	 1.050573e+07 	
6.82500000e+06 	 3.720155e-06 	 1.045200e+07 	
6.86000000e+06 	 3.656357e-06 	 1.039888e+07 	
6.89500000e+06 	 3.593965e-06 	 1.034637e+07 	
6.93000000e+06 	 3.532942e-06 	 1.029445e+07 	
7.00000000e+06 	 3.414849e-06 	 1.019234e+07 	
7.00050050e+06 	 3.414024e-06 	 1.019162e+07 	
7.00100100e+06 	 3.413198e-06 	 1.019090e+07 	
7.00150150e+06 	 3.412372e-06 	 1.019018e+07 	
7.00200200e+06 	 3.411547e-06 	 1.018946e+07 	
7.00250250e+06 	 3.410722e-06 	 1.018873e+07 	
7.00300300e+06 	 3.409898e-06 	 1.018801e+07 	
7.00350350e+06 	 3.409073e-06 	 1.018729e+07 	
7.00400400e+06 	 3.408249e-06 	 1.018657e+07 	
7.00450450e+06 	 3.407426e-06 	 1.018585e+07 	
7.00500501e+06 	 3.406602e-06 	 1.018513e+07 	
7.00550551e+06 	 3.405779e-06 	 1.018441e+07 	
7.00600601e+06 	 3.404956e-06 	 1.018369e+07 	
7.00650651e+06 	 3.404133e-06 	 1.018297e+07 	
7.00700701e+06 	 3.403310e-06 	 1.018225e+07 	
7.00750751e+06 	 3.402488e-06 	 1.018153e+07 	
7.00800801e+06 	 3.401666e-06 	 1.018081e+07 	
7.00850851e+06 	 3.400844e-06 	 1.018009e+07 	
7.00900901e+06 	 3.400022e-06 	 1.017937e+07 	
7.00950951e+06 	 3.399201e-06 	 1.017865e+07 	
7.01001001e+06 	 3.398380e-06 	 1.017793e+07 	
7.01051051e+06 	 3.397559e-06 	 1.017721e+07 	
7.01101101e+06 	 3.396739e-06 	 1.017649e+07 	
7.01151151e+06 	 3.395919e-06 	 1.017577e+07 	
7.01201201e+06 	 3.395098e-06 	 1.017505e+07 	
7.01251251e+06 	 3.394279e-06 	 1.017433e+07 	
7.01301301e+06 	 3.393459e-06 	 1.017361e+07 	
7.01351351e+06 	 3.392640e-06 	 1.017289e+07 	
7.01401401e+06 	 3.391821e-06 	 1.017217e+07 	
7.01451451e+06 	 3.391002e-06 	 1.017146e+07 	
7.01501502e+06 	 3.390184e-06 	 1.017074e+07 	
7.01551552e+06 	 3.389366e-06 	 1.017002e+07 	
7.01601602e+06 	 3.388548e-06 	 1.016930e+07 	
7.01651652e+06 	 3.387730e-06 	 1.016858e+07 	
7.01701702e+06 	 3.386912e-06 	 1.016786e+07 	
7.01751752e+06 	 3.386095e-06 	 1.016715e+07 	
7.01801802e+06 	 3.385278e-06 	 1.016643e+07 	
7.01851852e+06 	 3.384461e-06 	 1.016571e+07 	
7.01901902e+06 	 3.383645e-06 	 1.016499e+07 	
7.01951952e+06 	 3.382829e-06 	 1.016428e+07 	
7.02002002e+06 	 3.382013e-06 	 1.016356e+07 	
7.02052052e+06 	 3.381197e-06 	 1.016284e+07 	
7.02102102e+06 	 3.380382e-06 	 1.016212e+07 	
7.02152152e+06 	 3.379567e-06 	 1.016141e+07 	
7.02202202e+06 	 3.378752e-06 	 1.016069e+07 	
7.02252252e+06 	 3.377937e-06 	 1.015997e+07 	
7.02302302e+06 	 3.377123e-06 	 1.015926e+07 	
7.02352352e+06 	 3.376308e-06 	 1.015854e+07 	
7.02402402e+06 	 3.375494e-06 	 1.015782e+07 	
7.02452452e+06 	 3.374681e-06 	 1.015711e+07 	
7.02502503e+06 	 3.373867e-06 	 1.015639e+07 	
7.02552553e+06 	 3.373054e-06 	 1.015567e+07 	
7.02602603e+06 	 3.372241e-06 	 1.015496e+07 	
7.02652653e+06 	 3.371429e-06 	 1.015424e+07 	
7.02702703e+06 	 3.370616e-06 	 1.015353e+07 	
7.02752753e+06 	 3.369804e-06 	 1.015281e+07 	
7.02802803e+06 	 3.368992e-06 	 1.015210e+07 	
7.02852853e+06 	 3.368180e-06 	 1.015138e+07 	
7.02902903e+06 	 3.367369e-06 	 1.015067e+07 	
7.02952953e+06 	 3.366558e-06 	 1.014995e+07 	
7.03003003e+06 	 3.365747e-06 	 1.014924e+07 	
7.03053053e+06 	 3.364936e-06 	 1.014852e+07 	
7.03103103e+06 	 3.364126e-06 	 1.014781e+07 	
7.03153153e+06 	 3.363316e-06 	 1.014709e+07 	
7.03203203e+06 	 3.362506e-06 	 1.014638e+07 	
7.03253253e+06 	 3.361696e-06 	 1.014566e+07 	
7.03303303e+06 	 3.360887e-06 	 1.014495e+07 	
7.03353353e+06 	 3.360078e-06 	 1.014423e+07 	
7.03403403e+06 	 3.359269e-06 	 1.014352e+07 	
7.03453453e+06 	 3.358460e-06 	 1.014280e+07 	
7.03503504e+06 	 3.357652e-06 	 1.014209e+07 	
7.03553554e+06 	 3.356844e-06 	 1.014138e+07 	
7.03603604e+06 	 3.356036e-06 	 1.014066e+07 	
7.03653654e+06 	 3.355228e-06 	 1.013995e+07 	
7.03703704e+06 	 3.354421e-06 	 1.013924e+07 	
7.03753754e+06 	 3.353614e-06 	 1.013852e+07 	
7.03803804e+06 	 3.352807e-06 	 1.013781e+07 	
7.03853854e+06 	 3.352000e-06 	 1.013710e+07 	
7.03903904e+06 	 3.351194e-06 	 1.013638e+07 	
7.03953954e+06 	 3.350388e-06 	 1.013567e+07 	
7.04004004e+06 	 3.349582e-06 	 1.013496e+07 	
7.04054054e+06 	 3.348776e-06 	 1.013424e+07 	
7.04104104e+06 	 3.347971e-06 	 1.013353e+07 	
7.04154154e+06 	 3.347166e-06 	 1.013282e+07 	
7.04204204e+06 	 3.346361e-06 	 1.013211e+07 	
7.04254254e+06 	 3.345556e-06 	 1.013140e+07 	
7.04304304e+06 	 3.344752e-06 	 1.013068e+07 	
7.04354354e+06 	 3.343947e-06 	 1.012997e+07 	
7.04404404e+06 	 3.343144e-06 	 1.012926e+07 	
7.04454454e+06 	 3.342340e-06 	 1.012855e+07 	
7.04504505e+06 	 3.341537e-06 	 1.012784e+07 	
7.04554555e+06 	 3.340733e-06 	 1.012712e+07 	
7.04604605e+06 	 3.339930e-06 	 1.012641e+07 	
7.04654655e+06 	 3.339128e-06 	 1.012570e+07 	
