r (cm)      	rho (g/cm3) 	T (K)       	u (cm/s)    	L* (erg/s)  			 Edot= 1.785965e+39
1.300000e+06 	4.348100e+04 	1.272056e+09 	1.983558e+00 	4.748486e+38 	
1.300020e+06 	4.304747e+04 	1.269311e+09 	2.003470e+00 	4.748450e+38 	
1.300039e+06 	4.261826e+04 	1.266573e+09 	2.023580e+00 	4.748413e+38 	
1.300059e+06 	4.219333e+04 	1.263842e+09 	2.043893e+00 	4.748376e+38 	
1.300078e+06 	4.177263e+04 	1.261119e+09 	2.064410e+00 	4.748339e+38 	
1.300098e+06 	4.135613e+04 	1.258404e+09 	2.085133e+00 	4.748303e+38 	
1.300117e+06 	4.094378e+04 	1.255695e+09 	2.106064e+00 	4.748266e+38 	
1.300137e+06 	4.053555e+04 	1.252995e+09 	2.127205e+00 	4.748229e+38 	
1.300157e+06 	4.013138e+04 	1.250302e+09 	2.148558e+00 	4.748192e+38 	
1.300176e+06 	3.973125e+04 	1.247616e+09 	2.170126e+00 	4.748155e+38 	
1.300196e+06 	3.933510e+04 	1.244937e+09 	2.191910e+00 	4.748118e+38 	
1.300215e+06 	3.894290e+04 	1.242266e+09 	2.213913e+00 	4.748080e+38 	
1.300235e+06 	3.855462e+04 	1.239602e+09 	2.236136e+00 	4.748043e+38 	
1.300254e+06 	3.817020e+04 	1.236945e+09 	2.258583e+00 	4.748006e+38 	
1.300274e+06 	3.778962e+04 	1.234296e+09 	2.281255e+00 	4.747968e+38 	
1.300293e+06 	3.741283e+04 	1.231654e+09 	2.304155e+00 	4.747931e+38 	
1.300313e+06 	3.703980e+04 	1.229019e+09 	2.327285e+00 	4.747893e+38 	
1.300332e+06 	3.667049e+04 	1.226392e+09 	2.350647e+00 	4.747856e+38 	
1.300352e+06 	3.630486e+04 	1.223771e+09 	2.374243e+00 	4.747818e+38 	
1.300371e+06 	3.594288e+04 	1.221158e+09 	2.398077e+00 	4.747780e+38 	
1.300390e+06 	3.558451e+04 	1.218552e+09 	2.422149e+00 	4.747742e+38 	
1.300410e+06 	3.522971e+04 	1.215954e+09 	2.446464e+00 	4.747705e+38 	
1.300429e+06 	3.487844e+04 	1.213362e+09 	2.471022e+00 	4.747667e+38 	
1.300449e+06 	3.453068e+04 	1.210777e+09 	2.495827e+00 	4.747629e+38 	
1.300468e+06 	3.418639e+04 	1.208200e+09 	2.520881e+00 	4.747591e+38 	
1.300488e+06 	3.384553e+04 	1.205630e+09 	2.546187e+00 	4.747552e+38 	
1.300507e+06 	3.350807e+04 	1.203066e+09 	2.571747e+00 	4.747514e+38 	
1.300526e+06 	3.317397e+04 	1.200510e+09 	2.597563e+00 	4.747476e+38 	
1.300546e+06 	3.284320e+04 	1.197961e+09 	2.623638e+00 	4.747438e+38 	
1.300565e+06 	3.251574e+04 	1.195419e+09 	2.649976e+00 	4.747399e+38 	
1.300584e+06 	3.219153e+04 	1.192884e+09 	2.676577e+00 	4.747361e+38 	
1.300604e+06 	3.187056e+04 	1.190355e+09 	2.703446e+00 	4.747322e+38 	
1.300623e+06 	3.155279e+04 	1.187834e+09 	2.730584e+00 	4.747283e+38 	
1.300643e+06 	3.123819e+04 	1.185320e+09 	2.757995e+00 	4.747245e+38 	
1.300662e+06 	3.092673e+04 	1.182813e+09 	2.785681e+00 	4.747206e+38 	
1.300681e+06 	3.061837e+04 	1.180312e+09 	2.813645e+00 	4.747167e+38 	
1.300701e+06 	3.031308e+04 	1.177819e+09 	2.841890e+00 	4.747128e+38 	
1.300720e+06 	3.001084e+04 	1.175332e+09 	2.870419e+00 	4.747089e+38 	
1.300739e+06 	2.971161e+04 	1.172852e+09 	2.899233e+00 	4.747050e+38 	
1.300759e+06 	2.941537e+04 	1.170379e+09 	2.928338e+00 	4.747011e+38 	
1.300778e+06 	2.912208e+04 	1.167913e+09 	2.957734e+00 	4.746971e+38 	
1.300797e+06 	2.883171e+04 	1.165454e+09 	2.987425e+00 	4.746932e+38 	
1.300816e+06 	2.854424e+04 	1.163001e+09 	3.017415e+00 	4.746893e+38 	
1.300836e+06 	2.825964e+04 	1.160556e+09 	3.047705e+00 	4.746853e+38 	
1.300855e+06 	2.797787e+04 	1.158117e+09 	3.078300e+00 	4.746814e+38 	
1.300874e+06 	2.769891e+04 	1.155684e+09 	3.109202e+00 	4.746774e+38 	
1.300894e+06 	2.742274e+04 	1.153259e+09 	3.140414e+00 	4.746734e+38 	
1.300913e+06 	2.714931e+04 	1.150840e+09 	3.171939e+00 	4.746694e+38 	
1.300932e+06 	2.687862e+04 	1.148428e+09 	3.203781e+00 	4.746655e+38 	
1.300951e+06 	2.661062e+04 	1.146022e+09 	3.235943e+00 	4.746615e+38 	
1.300971e+06 	2.634530e+04 	1.143624e+09 	3.268427e+00 	4.746574e+38 	
1.300990e+06 	2.608262e+04 	1.141231e+09 	3.301238e+00 	4.746534e+38 	
1.301009e+06 	2.582255e+04 	1.138846e+09 	3.334378e+00 	4.746494e+38 	
1.301028e+06 	2.556509e+04 	1.136467e+09 	3.367851e+00 	4.746454e+38 	
1.301048e+06 	2.531019e+04 	1.134095e+09 	3.401659e+00 	4.746413e+38 	
1.301067e+06 	2.505783e+04 	1.131729e+09 	3.435808e+00 	4.746373e+38 	
1.301086e+06 	2.480799e+04 	1.129370e+09 	3.470299e+00 	4.746332e+38 	
1.301105e+06 	2.456063e+04 	1.127017e+09 	3.505136e+00 	4.746292e+38 	
1.301125e+06 	2.431575e+04 	1.124671e+09 	3.540323e+00 	4.746251e+38 	
1.301144e+06 	2.407330e+04 	1.122331e+09 	3.575863e+00 	4.746210e+38 	
1.301163e+06 	2.383328e+04 	1.119998e+09 	3.611760e+00 	4.746169e+38 	
1.301182e+06 	2.359564e+04 	1.117672e+09 	3.648018e+00 	4.746128e+38 	
1.301201e+06 	2.336038e+04 	1.115352e+09 	3.684639e+00 	4.746087e+38 	
1.301221e+06 	2.312746e+04 	1.113038e+09 	3.721628e+00 	4.746046e+38 	
1.301240e+06 	2.289687e+04 	1.110730e+09 	3.758989e+00 	4.746005e+38 	
1.301259e+06 	2.266857e+04 	1.108430e+09 	3.796724e+00 	4.745963e+38 	
1.301278e+06 	2.244255e+04 	1.106135e+09 	3.834839e+00 	4.745922e+38 	
1.301298e+06 	2.221878e+04 	1.103847e+09 	3.873336e+00 	4.745880e+38 	
1.301317e+06 	2.199725e+04 	1.101565e+09 	3.912219e+00 	4.745839e+38 	
1.301336e+06 	2.177792e+04 	1.099290e+09 	3.951493e+00 	4.745797e+38 	
1.301355e+06 	2.156078e+04 	1.097021e+09 	3.991161e+00 	4.745755e+38 	
1.301374e+06 	2.134581e+04 	1.094758e+09 	4.031228e+00 	4.745713e+38 	
1.301393e+06 	2.113297e+04 	1.092502e+09 	4.071696e+00 	4.745671e+38 	
1.301413e+06 	2.092226e+04 	1.090252e+09 	4.112571e+00 	4.745629e+38 	
1.301432e+06 	2.071366e+04 	1.088008e+09 	4.153856e+00 	4.745587e+38 	
1.301451e+06 	2.050713e+04 	1.085770e+09 	4.195556e+00 	4.745545e+38 	
1.301470e+06 	2.030266e+04 	1.083539e+09 	4.237675e+00 	4.745502e+38 	
1.301489e+06 	2.010023e+04 	1.081313e+09 	4.280216e+00 	4.745460e+38 	
1.301509e+06 	1.989982e+04 	1.079094e+09 	4.323184e+00 	4.745417e+38 	
1.301528e+06 	1.970140e+04 	1.076882e+09 	4.366584e+00 	4.745374e+38 	
1.301547e+06 	1.950497e+04 	1.074675e+09 	4.410419e+00 	4.745332e+38 	
1.301566e+06 	1.931049e+04 	1.072475e+09 	4.454694e+00 	4.745289e+38 	
1.301585e+06 	1.911795e+04 	1.070280e+09 	4.499414e+00 	4.745246e+38 	
1.301604e+06 	1.892733e+04 	1.068092e+09 	4.544583e+00 	4.745203e+38 	
1.301624e+06 	1.873861e+04 	1.065910e+09 	4.590205e+00 	4.745159e+38 	
1.301643e+06 	1.855178e+04 	1.063734e+09 	4.636286e+00 	4.745116e+38 	
1.301662e+06 	1.836680e+04 	1.061565e+09 	4.682828e+00 	4.745073e+38 	
1.301681e+06 	1.818368e+04 	1.059401e+09 	4.729839e+00 	4.745029e+38 	
1.301700e+06 	1.800237e+04 	1.057243e+09 	4.777321e+00 	4.744986e+38 	
1.301719e+06 	1.782288e+04 	1.055091e+09 	4.825279e+00 	4.744942e+38 	
1.301739e+06 	1.764517e+04 	1.052946e+09 	4.873720e+00 	4.744898e+38 	
1.301758e+06 	1.746924e+04 	1.050806e+09 	4.922646e+00 	4.744854e+38 	
1.301777e+06 	1.729506e+04 	1.048673e+09 	4.972064e+00 	4.744810e+38 	
1.301796e+06 	1.712262e+04 	1.046545e+09 	5.021978e+00 	4.744766e+38 	
1.301815e+06 	1.695189e+04 	1.044423e+09 	5.072392e+00 	4.744722e+38 	
1.301834e+06 	1.678287e+04 	1.042308e+09 	5.123313e+00 	4.744677e+38 	
1.301854e+06 	1.661553e+04 	1.040198e+09 	5.174745e+00 	4.744633e+38 	
1.301873e+06 	1.644987e+04 	1.038094e+09 	5.226694e+00 	4.744588e+38 	
1.301892e+06 	1.628585e+04 	1.035996e+09 	5.279164e+00 	4.744544e+38 	
1.301911e+06 	1.612347e+04 	1.033904e+09 	5.332161e+00 	4.744499e+38 	
1.301930e+06 	1.596271e+04 	1.031818e+09 	5.385689e+00 	4.744454e+38 	
1.301949e+06 	1.580355e+04 	1.029738e+09 	5.439755e+00 	4.744409e+38 	
1.301968e+06 	1.564598e+04 	1.027663e+09 	5.494364e+00 	4.744364e+38 	
1.301988e+06 	1.548998e+04 	1.025595e+09 	5.549521e+00 	4.744318e+38 	
1.302007e+06 	1.533553e+04 	1.023532e+09 	5.605232e+00 	4.744273e+38 	
1.302026e+06 	1.518263e+04 	1.021475e+09 	5.661502e+00 	4.744227e+38 	
1.302045e+06 	1.503125e+04 	1.019424e+09 	5.718337e+00 	4.744182e+38 	
1.302064e+06 	1.488138e+04 	1.017378e+09 	5.775742e+00 	4.744136e+38 	
1.302083e+06 	1.473300e+04 	1.015339e+09 	5.833724e+00 	4.744090e+38 	
1.302103e+06 	1.458610e+04 	1.013305e+09 	5.892288e+00 	4.744044e+38 	
1.302122e+06 	1.444067e+04 	1.011276e+09 	5.951440e+00 	4.743998e+38 	
1.302141e+06 	1.429669e+04 	1.009254e+09 	6.011185e+00 	4.743952e+38 	
1.302160e+06 	1.415414e+04 	1.007237e+09 	6.071530e+00 	4.743906e+38 	
1.302179e+06 	1.401301e+04 	1.005226e+09 	6.132481e+00 	4.743859e+38 	
1.302198e+06 	1.387329e+04 	1.003221e+09 	6.194044e+00 	4.743813e+38 	
1.302218e+06 	1.373497e+04 	1.001221e+09 	6.256225e+00 	4.743766e+38 	
1.302237e+06 	1.359802e+04 	9.992272e+08 	6.319030e+00 	4.743719e+38 	
1.302256e+06 	1.346244e+04 	9.972388e+08 	6.382466e+00 	4.743672e+38 	
1.302275e+06 	1.332821e+04 	9.952560e+08 	6.446538e+00 	4.743625e+38 	
1.302294e+06 	1.319532e+04 	9.932787e+08 	6.511254e+00 	4.743578e+38 	
1.302314e+06 	1.306375e+04 	9.913071e+08 	6.576619e+00 	4.743530e+38 	
1.302333e+06 	1.293350e+04 	9.893412e+08 	6.642640e+00 	4.743483e+38 	
1.302352e+06 	1.280454e+04 	9.873808e+08 	6.709324e+00 	4.743435e+38 	
1.302371e+06 	1.267688e+04 	9.854259e+08 	6.776678e+00 	4.743388e+38 	
1.302390e+06 	1.255048e+04 	9.834766e+08 	6.844707e+00 	4.743340e+38 	
1.302410e+06 	1.242534e+04 	9.815328e+08 	6.913420e+00 	4.743292e+38 	
1.302429e+06 	1.230145e+04 	9.795945e+08 	6.982822e+00 	4.743244e+38 	
1.302448e+06 	1.217880e+04 	9.776617e+08 	7.052921e+00 	4.743195e+38 	
1.302467e+06 	1.205737e+04 	9.757344e+08 	7.123724e+00 	4.743147e+38 	
1.302486e+06 	1.193715e+04 	9.738125e+08 	7.195237e+00 	4.743098e+38 	
1.302506e+06 	1.181813e+04 	9.718960e+08 	7.267468e+00 	4.743050e+38 	
1.302525e+06 	1.170029e+04 	9.699851e+08 	7.340424e+00 	4.743001e+38 	
1.302544e+06 	1.158363e+04 	9.680796e+08 	7.414113e+00 	4.742952e+38 	
1.302563e+06 	1.146814e+04 	9.661795e+08 	7.488541e+00 	4.742903e+38 	
1.302583e+06 	1.135379e+04 	9.642849e+08 	7.563717e+00 	4.742854e+38 	
1.302602e+06 	1.124059e+04 	9.623956e+08 	7.639647e+00 	4.742804e+38 	
1.302621e+06 	1.112851e+04 	9.605117e+08 	7.716339e+00 	4.742755e+38 	
1.302640e+06 	1.101755e+04 	9.586331e+08 	7.793801e+00 	4.742705e+38 	
1.302660e+06 	1.090770e+04 	9.567599e+08 	7.872041e+00 	4.742655e+38 	
1.302679e+06 	1.079895e+04 	9.548920e+08 	7.951066e+00 	4.742605e+38 	
1.302698e+06 	1.069127e+04 	9.530294e+08 	8.030884e+00 	4.742555e+38 	
1.302717e+06 	1.058467e+04 	9.511722e+08 	8.111503e+00 	4.742505e+38 	
1.302737e+06 	1.047914e+04 	9.493202e+08 	8.192932e+00 	4.742455e+38 	
1.302756e+06 	1.037465e+04 	9.474736e+08 	8.275178e+00 	4.742404e+38 	
1.302775e+06 	1.027121e+04 	9.456323e+08 	8.358250e+00 	4.742353e+38 	
1.302795e+06 	1.016880e+04 	9.437962e+08 	8.442155e+00 	4.742303e+38 	
1.302814e+06 	1.006741e+04 	9.419653e+08 	8.526903e+00 	4.742252e+38 	
1.302833e+06 	9.967033e+03 	9.401397e+08 	8.612501e+00 	4.742200e+38 	
1.302853e+06 	9.867656e+03 	9.383193e+08 	8.698959e+00 	4.742149e+38 	
1.302872e+06 	9.769269e+03 	9.365040e+08 	8.786284e+00 	4.742098e+38 	
1.302891e+06 	9.671863e+03 	9.346939e+08 	8.874486e+00 	4.742046e+38 	
1.302910e+06 	9.575428e+03 	9.328890e+08 	8.963574e+00 	4.741994e+38 	
1.302930e+06 	9.479955e+03 	9.310893e+08 	9.053555e+00 	4.741942e+38 	
1.302949e+06 	9.385434e+03 	9.292948e+08 	9.144440e+00 	4.741890e+38 	
1.302968e+06 	9.291855e+03 	9.275054e+08 	9.236237e+00 	4.741838e+38 	
1.302988e+06 	9.199209e+03 	9.257213e+08 	9.328955e+00 	4.741786e+38 	
1.303007e+06 	9.107487e+03 	9.239421e+08 	9.422604e+00 	4.741733e+38 	
1.303027e+06 	9.016679e+03 	9.221681e+08 	9.517193e+00 	4.741681e+38 	
1.303046e+06 	8.926777e+03 	9.203992e+08 	9.612732e+00 	4.741628e+38 	
1.303065e+06 	8.837771e+03 	9.186353e+08 	9.709229e+00 	4.741575e+38 	
1.303085e+06 	8.749653e+03 	9.168765e+08 	9.806695e+00 	4.741521e+38 	
1.303104e+06 	8.662413e+03 	9.151227e+08 	9.905140e+00 	4.741468e+38 	
1.303124e+06 	8.576043e+03 	9.133740e+08 	1.000457e+01 	4.741414e+38 	
1.303143e+06 	8.490535e+03 	9.116303e+08 	1.010500e+01 	4.741361e+38 	
1.303162e+06 	8.405879e+03 	9.098917e+08 	1.020644e+01 	4.741307e+38 	
1.303182e+06 	8.322067e+03 	9.081580e+08 	1.030890e+01 	4.741253e+38 	
1.303201e+06 	8.239090e+03 	9.064294e+08 	1.041238e+01 	4.741199e+38 	
1.303221e+06 	8.156941e+03 	9.047057e+08 	1.051691e+01 	4.741144e+38 	
1.303240e+06 	8.075611e+03 	9.029870e+08 	1.062248e+01 	4.741090e+38 	
1.303260e+06 	7.995092e+03 	9.012732e+08 	1.072911e+01 	4.741035e+38 	
1.303279e+06 	7.915376e+03 	8.995643e+08 	1.083681e+01 	4.740980e+38 	
1.303299e+06 	7.836454e+03 	8.978604e+08 	1.094560e+01 	4.740925e+38 	
1.303318e+06 	7.758320e+03 	8.961614e+08 	1.105547e+01 	4.740870e+38 	
1.303337e+06 	7.680964e+03 	8.944673e+08 	1.116645e+01 	4.740814e+38 	
1.303357e+06 	7.604380e+03 	8.927781e+08 	1.127854e+01 	4.740758e+38 	
1.303377e+06 	7.528560e+03 	8.910938e+08 	1.139176e+01 	4.740703e+38 	
1.303396e+06 	7.453495e+03 	8.894144e+08 	1.150612e+01 	4.740647e+38 	
1.303416e+06 	7.379179e+03 	8.877398e+08 	1.162162e+01 	4.740590e+38 	
1.303435e+06 	7.305604e+03 	8.860701e+08 	1.173828e+01 	4.740534e+38 	
1.303455e+06 	7.232762e+03 	8.844052e+08 	1.185611e+01 	4.740477e+38 	
1.303474e+06 	7.160647e+03 	8.827451e+08 	1.197512e+01 	4.740421e+38 	
1.303494e+06 	7.089250e+03 	8.810897e+08 	1.209533e+01 	4.740364e+38 	
1.303513e+06 	7.018566e+03 	8.794392e+08 	1.221675e+01 	4.740307e+38 	
1.303533e+06 	6.948586e+03 	8.777934e+08 	1.233938e+01 	4.740249e+38 	
1.303553e+06 	6.879304e+03 	8.761525e+08 	1.246325e+01 	4.740192e+38 	
1.303572e+06 	6.810713e+03 	8.745163e+08 	1.258835e+01 	4.740134e+38 	
1.303592e+06 	6.742806e+03 	8.728849e+08 	1.271472e+01 	4.740076e+38 	
1.303611e+06 	6.675576e+03 	8.712582e+08 	1.284235e+01 	4.740018e+38 	
1.303631e+06 	6.609016e+03 	8.696362e+08 	1.297126e+01 	4.739960e+38 	
1.303651e+06 	6.543120e+03 	8.680190e+08 	1.310147e+01 	4.739901e+38 	
1.303670e+06 	6.477881e+03 	8.664064e+08 	1.323298e+01 	4.739843e+38 	
1.303690e+06 	6.413292e+03 	8.647985e+08 	1.336581e+01 	4.739784e+38 	
1.303710e+06 	6.349347e+03 	8.631952e+08 	1.349998e+01 	4.739725e+38 	
1.303729e+06 	6.286040e+03 	8.615966e+08 	1.363549e+01 	4.739665e+38 	
1.303749e+06 	6.223364e+03 	8.600027e+08 	1.377236e+01 	4.739606e+38 	
1.303769e+06 	6.161313e+03 	8.584134e+08 	1.391061e+01 	4.739546e+38 	
1.303789e+06 	6.099881e+03 	8.568288e+08 	1.405025e+01 	4.739486e+38 	
1.303808e+06 	6.039061e+03 	8.552489e+08 	1.419128e+01 	4.739426e+38 	
1.303828e+06 	5.978848e+03 	8.536735e+08 	1.433373e+01 	4.739366e+38 	
1.303848e+06 	5.919235e+03 	8.521027e+08 	1.447761e+01 	4.739305e+38 	
1.303868e+06 	5.860216e+03 	8.505364e+08 	1.462294e+01 	4.739244e+38 	
1.303887e+06 	5.801786e+03 	8.489748e+08 	1.476972e+01 	4.739183e+38 	
1.303907e+06 	5.743939e+03 	8.474176e+08 	1.491797e+01 	4.739122e+38 	
1.303927e+06 	5.686668e+03 	8.458650e+08 	1.506772e+01 	4.739061e+38 	
1.303947e+06 	5.629968e+03 	8.443169e+08 	1.521896e+01 	4.738999e+38 	
1.303967e+06 	5.573834e+03 	8.427734e+08 	1.537173e+01 	4.738937e+38 	
1.303987e+06 	5.518259e+03 	8.412344e+08 	1.552602e+01 	4.738875e+38 	
1.304006e+06 	5.463238e+03 	8.396999e+08 	1.568187e+01 	4.738813e+38 	
1.304026e+06 	5.408766e+03 	8.381699e+08 	1.583928e+01 	4.738750e+38 	
1.304046e+06 	5.354837e+03 	8.366444e+08 	1.599827e+01 	4.738687e+38 	
1.304066e+06 	5.301446e+03 	8.351234e+08 	1.615885e+01 	4.738624e+38 	
1.304086e+06 	5.248587e+03 	8.336068e+08 	1.632105e+01 	4.738561e+38 	
1.304106e+06 	5.196256e+03 	8.320946e+08 	1.648488e+01 	4.738498e+38 	
1.304126e+06 	5.144446e+03 	8.305868e+08 	1.665034e+01 	4.738434e+38 	
1.304146e+06 	5.093152e+03 	8.290835e+08 	1.681747e+01 	4.738370e+38 	
1.304166e+06 	5.042370e+03 	8.275846e+08 	1.698628e+01 	4.738306e+38 	
1.304186e+06 	4.992094e+03 	8.260901e+08 	1.715678e+01 	4.738242e+38 	
1.304206e+06 	4.942320e+03 	8.246000e+08 	1.732899e+01 	4.738177e+38 	
1.304226e+06 	4.893042e+03 	8.231142e+08 	1.750293e+01 	4.738112e+38 	
1.304246e+06 	4.844255e+03 	8.216329e+08 	1.767861e+01 	4.738047e+38 	
1.304266e+06 	4.795955e+03 	8.201559e+08 	1.785606e+01 	4.737982e+38 	
1.304286e+06 	4.748136e+03 	8.186832e+08 	1.803529e+01 	4.737916e+38 	
1.304306e+06 	4.700794e+03 	8.172148e+08 	1.821631e+01 	4.737850e+38 	
1.304326e+06 	4.653924e+03 	8.157508e+08 	1.839916e+01 	4.737784e+38 	
1.304346e+06 	4.607521e+03 	8.142910e+08 	1.858383e+01 	4.737718e+38 	
1.304367e+06 	4.561581e+03 	8.128356e+08 	1.877037e+01 	4.737651e+38 	
1.304387e+06 	4.516099e+03 	8.113844e+08 	1.895877e+01 	4.737584e+38 	
1.304407e+06 	4.471071e+03 	8.099375e+08 	1.914906e+01 	4.737517e+38 	
1.304427e+06 	4.426491e+03 	8.084950e+08 	1.934127e+01 	4.737450e+38 	
1.304447e+06 	4.382356e+03 	8.070567e+08 	1.953540e+01 	4.737382e+38 	
1.304467e+06 	4.338662e+03 	8.056226e+08 	1.973148e+01 	4.737314e+38 	
1.304488e+06 	4.295402e+03 	8.041927e+08 	1.992952e+01 	4.737246e+38 	
1.304508e+06 	4.252574e+03 	8.027671e+08 	2.012956e+01 	4.737178e+38 	
1.304528e+06 	4.210173e+03 	8.013457e+08 	2.033160e+01 	4.737109e+38 	
1.304548e+06 	4.168195e+03 	7.999284e+08 	2.053567e+01 	4.737040e+38 	
1.304569e+06 	4.126636e+03 	7.985153e+08 	2.074178e+01 	4.736971e+38 	
1.304589e+06 	4.085490e+03 	7.971064e+08 	2.094997e+01 	4.736901e+38 	
1.304609e+06 	4.044755e+03 	7.957016e+08 	2.116024e+01 	4.736832e+38 	
1.304630e+06 	4.004427e+03 	7.943011e+08 	2.137263e+01 	4.736762e+38 	
1.304650e+06 	3.964500e+03 	7.929047e+08 	2.158714e+01 	4.736691e+38 	
1.304671e+06 	3.924971e+03 	7.915125e+08 	2.180381e+01 	4.736621e+38 	
1.304691e+06 	3.885837e+03 	7.901243e+08 	2.202265e+01 	4.736550e+38 	
1.304711e+06 	3.847092e+03 	7.887403e+08 	2.224369e+01 	4.736479e+38 	
1.304732e+06 	3.808734e+03 	7.873604e+08 	2.246694e+01 	4.736407e+38 	
1.304752e+06 	3.770759e+03 	7.859845e+08 	2.269243e+01 	4.736336e+38 	
1.304773e+06 	3.733162e+03 	7.846128e+08 	2.292019e+01 	4.736264e+38 	
1.304793e+06 	3.695940e+03 	7.832450e+08 	2.315023e+01 	4.736191e+38 	
1.304814e+06 	3.659089e+03 	7.818814e+08 	2.338258e+01 	4.736119e+38 	
1.304834e+06 	3.622606e+03 	7.805217e+08 	2.361727e+01 	4.736046e+38 	
1.304855e+06 	3.586486e+03 	7.791662e+08 	2.385430e+01 	4.735973e+38 	
1.304875e+06 	3.550726e+03 	7.778147e+08 	2.409372e+01 	4.735899e+38 	
1.304896e+06 	3.515323e+03 	7.764672e+08 	2.433553e+01 	4.735826e+38 	
1.304917e+06 	3.480273e+03 	7.751237e+08 	2.457978e+01 	4.735751e+38 	
1.304937e+06 	3.445573e+03 	7.737842e+08 	2.482647e+01 	4.735677e+38 	
1.304958e+06 	3.411218e+03 	7.724487e+08 	2.507564e+01 	4.735602e+38 	
1.304979e+06 	3.377206e+03 	7.711172e+08 	2.532731e+01 	4.735528e+38 	
1.304999e+06 	3.343533e+03 	7.697896e+08 	2.558150e+01 	4.735452e+38 	
1.305020e+06 	3.310196e+03 	7.684659e+08 	2.583824e+01 	4.735377e+38 	
1.305041e+06 	3.277191e+03 	7.671462e+08 	2.609756e+01 	4.735301e+38 	
1.305062e+06 	3.244515e+03 	7.658304e+08 	2.635949e+01 	4.735225e+38 	
1.305082e+06 	3.212165e+03 	7.645186e+08 	2.662403e+01 	4.735148e+38 	
1.305103e+06 	3.180138e+03 	7.632106e+08 	2.689124e+01 	4.735071e+38 	
1.305124e+06 	3.148430e+03 	7.619067e+08 	2.716112e+01 	4.734994e+38 	
1.305145e+06 	3.117038e+03 	7.606066e+08 	2.743371e+01 	4.734917e+38 	
1.305166e+06 	3.085959e+03 	7.593103e+08 	2.770904e+01 	4.734839e+38 	
1.305187e+06 	3.055190e+03 	7.580180e+08 	2.798713e+01 	4.734761e+38 	
1.305208e+06 	3.024728e+03 	7.567295e+08 	2.826800e+01 	4.734682e+38 	
1.305229e+06 	2.994569e+03 	7.554448e+08 	2.855170e+01 	4.734603e+38 	
1.305250e+06 	2.964712e+03 	7.541639e+08 	2.883824e+01 	4.734524e+38 	
1.305271e+06 	2.935152e+03 	7.528869e+08 	2.912766e+01 	4.734445e+38 	
1.305292e+06 	2.905886e+03 	7.516137e+08 	2.941998e+01 	4.734365e+38 	
1.305313e+06 	2.876913e+03 	7.503443e+08 	2.971523e+01 	4.734285e+38 	
1.305334e+06 	2.848228e+03 	7.490788e+08 	3.001345e+01 	4.734204e+38 	
1.305355e+06 	2.819829e+03 	7.478170e+08 	3.031465e+01 	4.734124e+38 	
1.305376e+06 	2.791714e+03 	7.465590e+08 	3.061888e+01 	4.734042e+38 	
1.305397e+06 	2.763879e+03 	7.453048e+08 	3.092616e+01 	4.733961e+38 	
1.305418e+06 	2.736321e+03 	7.440543e+08 	3.123652e+01 	4.733879e+38 	
1.305439e+06 	2.709038e+03 	7.428076e+08 	3.155000e+01 	4.733797e+38 	
1.305461e+06 	2.682027e+03 	7.415645e+08 	3.186662e+01 	4.733714e+38 	
1.305482e+06 	2.655286e+03 	7.403252e+08 	3.218641e+01 	4.733631e+38 	
