r (cm)      	rho (g/cm3) 	T (K)       	u (cm/s)    	L* (erg/s)  			 Edot= 6.410443e+38
1.200005e+06 	1.393119e+05 	1.506669e+09 	1.765094e-01 	5.918546e+38 	
1.200012e+06 	1.377290e+05 	1.502552e+09 	1.785356e-01 	5.918542e+38 	
1.200018e+06 	1.361641e+05 	1.498448e+09 	1.805851e-01 	5.918538e+38 	
1.200025e+06 	1.346170e+05 	1.494356e+09 	1.826581e-01 	5.918534e+38 	
1.200031e+06 	1.330875e+05 	1.490277e+09 	1.847549e-01 	5.918530e+38 	
1.200037e+06 	1.315753e+05 	1.486210e+09 	1.868757e-01 	5.918526e+38 	
1.200044e+06 	1.300803e+05 	1.482155e+09 	1.890210e-01 	5.918522e+38 	
1.200050e+06 	1.286023e+05 	1.478112e+09 	1.911908e-01 	5.918518e+38 	
1.200056e+06 	1.271411e+05 	1.474082e+09 	1.933856e-01 	5.918513e+38 	
1.200063e+06 	1.256965e+05 	1.470064e+09 	1.956055e-01 	5.918509e+38 	
1.200069e+06 	1.242684e+05 	1.466058e+09 	1.978510e-01 	5.918505e+38 	
1.200075e+06 	1.228564e+05 	1.462065e+09 	2.001222e-01 	5.918501e+38 	
1.200082e+06 	1.214605e+05 	1.458083e+09 	2.024195e-01 	5.918497e+38 	
1.200088e+06 	1.200804e+05 	1.454113e+09 	2.047432e-01 	5.918493e+38 	
1.200094e+06 	1.187161e+05 	1.450155e+09 	2.070935e-01 	5.918489e+38 	
1.200101e+06 	1.173672e+05 	1.446210e+09 	2.094709e-01 	5.918485e+38 	
1.200107e+06 	1.160337e+05 	1.442276e+09 	2.118755e-01 	5.918480e+38 	
1.200113e+06 	1.147153e+05 	1.438355e+09 	2.143077e-01 	5.918476e+38 	
1.200119e+06 	1.134119e+05 	1.434445e+09 	2.167679e-01 	5.918472e+38 	
1.200126e+06 	1.121233e+05 	1.430547e+09 	2.192563e-01 	5.918468e+38 	
1.200132e+06 	1.108493e+05 	1.426660e+09 	2.217733e-01 	5.918464e+38 	
1.200138e+06 	1.095898e+05 	1.422786e+09 	2.243192e-01 	5.918460e+38 	
1.200144e+06 	1.083446e+05 	1.418923e+09 	2.268943e-01 	5.918456e+38 	
1.200150e+06 	1.071136e+05 	1.415072e+09 	2.294990e-01 	5.918451e+38 	
1.200157e+06 	1.058966e+05 	1.411232e+09 	2.321336e-01 	5.918447e+38 	
1.200163e+06 	1.046934e+05 	1.407405e+09 	2.347984e-01 	5.918443e+38 	
1.200169e+06 	1.035038e+05 	1.403588e+09 	2.374938e-01 	5.918439e+38 	
1.200175e+06 	1.023278e+05 	1.399784e+09 	2.402202e-01 	5.918435e+38 	
1.200181e+06 	1.011651e+05 	1.395991e+09 	2.429779e-01 	5.918431e+38 	
1.200187e+06 	1.000157e+05 	1.392209e+09 	2.457672e-01 	5.918427e+38 	
1.200194e+06 	9.887928e+04 	1.388438e+09 	2.485886e-01 	5.918422e+38 	
1.200200e+06 	9.775580e+04 	1.384680e+09 	2.514424e-01 	5.918418e+38 	
1.200206e+06 	9.664508e+04 	1.380932e+09 	2.543289e-01 	5.918414e+38 	
1.200212e+06 	9.554699e+04 	1.377196e+09 	2.572486e-01 	5.918410e+38 	
1.200218e+06 	9.446137e+04 	1.373471e+09 	2.602018e-01 	5.918406e+38 	
1.200224e+06 	9.338808e+04 	1.369758e+09 	2.631889e-01 	5.918402e+38 	
1.200230e+06 	9.232699e+04 	1.366055e+09 	2.662103e-01 	5.918398e+38 	
1.200236e+06 	9.127796e+04 	1.362364e+09 	2.692663e-01 	5.918393e+38 	
1.200242e+06 	9.024085e+04 	1.358684e+09 	2.723575e-01 	5.918389e+38 	
1.200249e+06 	8.921552e+04 	1.355015e+09 	2.754842e-01 	5.918385e+38 	
1.200255e+06 	8.820184e+04 	1.351358e+09 	2.786467e-01 	5.918381e+38 	
1.200261e+06 	8.719968e+04 	1.347711e+09 	2.818456e-01 	5.918377e+38 	
1.200267e+06 	8.620890e+04 	1.344075e+09 	2.850812e-01 	5.918373e+38 	
1.200273e+06 	8.522938e+04 	1.340451e+09 	2.883540e-01 	5.918369e+38 	
1.200279e+06 	8.426099e+04 	1.336837e+09 	2.916643e-01 	5.918364e+38 	
1.200285e+06 	8.330361e+04 	1.333234e+09 	2.950126e-01 	5.918360e+38 	
1.200291e+06 	8.235710e+04 	1.329643e+09 	2.983994e-01 	5.918356e+38 	
1.200297e+06 	8.142135e+04 	1.326062e+09 	3.018251e-01 	5.918352e+38 	
1.200303e+06 	8.049622e+04 	1.322491e+09 	3.052901e-01 	5.918348e+38 	
1.200309e+06 	7.958161e+04 	1.318932e+09 	3.087949e-01 	5.918344e+38 	
1.200315e+06 	7.867740e+04 	1.315384e+09 	3.123399e-01 	5.918339e+38 	
1.200321e+06 	7.778345e+04 	1.311846e+09 	3.159256e-01 	5.918335e+38 	
1.200327e+06 	7.689967e+04 	1.308319e+09 	3.195525e-01 	5.918331e+38 	
1.200333e+06 	7.602592e+04 	1.304803e+09 	3.232210e-01 	5.918327e+38 	
1.200339e+06 	7.516210e+04 	1.301297e+09 	3.269317e-01 	5.918323e+38 	
1.200345e+06 	7.430810e+04 	1.297802e+09 	3.306850e-01 	5.918319e+38 	
1.200350e+06 	7.346380e+04 	1.294317e+09 	3.344813e-01 	5.918314e+38 	
1.200356e+06 	7.262909e+04 	1.290843e+09 	3.383213e-01 	5.918310e+38 	
1.200362e+06 	7.180387e+04 	1.287379e+09 	3.422053e-01 	5.918306e+38 	
1.200368e+06 	7.098803e+04 	1.283926e+09 	3.461339e-01 	5.918302e+38 	
1.200374e+06 	7.018145e+04 	1.280484e+09 	3.501077e-01 	5.918298e+38 	
1.200380e+06 	6.938404e+04 	1.277052e+09 	3.541270e-01 	5.918293e+38 	
1.200386e+06 	6.859569e+04 	1.273630e+09 	3.581925e-01 	5.918289e+38 	
1.200392e+06 	6.781629e+04 	1.270219e+09 	3.623047e-01 	5.918285e+38 	
1.200398e+06 	6.704575e+04 	1.266817e+09 	3.664641e-01 	5.918281e+38 	
1.200403e+06 	6.628397e+04 	1.263427e+09 	3.706713e-01 	5.918277e+38 	
1.200409e+06 	6.553084e+04 	1.260046e+09 	3.749268e-01 	5.918272e+38 	
1.200415e+06 	6.478627e+04 	1.256676e+09 	3.792311e-01 	5.918268e+38 	
1.200421e+06 	6.405016e+04 	1.253316e+09 	3.835849e-01 	5.918264e+38 	
1.200427e+06 	6.332241e+04 	1.249966e+09 	3.879886e-01 	5.918260e+38 	
1.200433e+06 	6.260293e+04 	1.246626e+09 	3.924429e-01 	5.918256e+38 	
1.200439e+06 	6.189163e+04 	1.243297e+09 	3.969484e-01 	5.918251e+38 	
1.200444e+06 	6.118841e+04 	1.239977e+09 	4.015055e-01 	5.918247e+38 	
1.200450e+06 	6.049318e+04 	1.236667e+09 	4.061150e-01 	5.918243e+38 	
1.200456e+06 	5.980584e+04 	1.233368e+09 	4.107775e-01 	5.918239e+38 	
1.200462e+06 	5.912632e+04 	1.230078e+09 	4.154934e-01 	5.918235e+38 	
1.200468e+06 	5.845452e+04 	1.226799e+09 	4.202636e-01 	5.918230e+38 	
1.200473e+06 	5.779035e+04 	1.223529e+09 	4.250884e-01 	5.918226e+38 	
1.200479e+06 	5.713373e+04 	1.220270e+09 	4.299687e-01 	5.918222e+38 	
1.200485e+06 	5.648457e+04 	1.217020e+09 	4.349050e-01 	5.918218e+38 	
1.200491e+06 	5.584278e+04 	1.213780e+09 	4.398980e-01 	5.918213e+38 	
1.200496e+06 	5.520829e+04 	1.210550e+09 	4.449483e-01 	5.918209e+38 	
1.200502e+06 	5.458100e+04 	1.207329e+09 	4.500567e-01 	5.918205e+38 	
1.200508e+06 	5.396084e+04 	1.204119e+09 	4.552236e-01 	5.918201e+38 	
1.200514e+06 	5.334773e+04 	1.200918e+09 	4.604499e-01 	5.918197e+38 	
1.200519e+06 	5.274159e+04 	1.197727e+09 	4.657362e-01 	5.918192e+38 	
1.200525e+06 	5.214233e+04 	1.194545e+09 	4.710832e-01 	5.918188e+38 	
1.200531e+06 	5.154988e+04 	1.191373e+09 	4.764916e-01 	5.918184e+38 	
1.200536e+06 	5.096416e+04 	1.188211e+09 	4.819621e-01 	5.918180e+38 	
1.200542e+06 	5.038510e+04 	1.185058e+09 	4.874954e-01 	5.918175e+38 	
1.200548e+06 	4.981262e+04 	1.181915e+09 	4.930922e-01 	5.918171e+38 	
1.200553e+06 	4.924664e+04 	1.178782e+09 	4.987533e-01 	5.918167e+38 	
1.200559e+06 	4.868709e+04 	1.175658e+09 	5.044794e-01 	5.918163e+38 	
1.200565e+06 	4.813390e+04 	1.172543e+09 	5.102713e-01 	5.918158e+38 	
1.200570e+06 	4.758700e+04 	1.169438e+09 	5.161296e-01 	5.918154e+38 	
1.200576e+06 	4.704631e+04 	1.166342e+09 	5.220552e-01 	5.918150e+38 	
1.200582e+06 	4.651176e+04 	1.163256e+09 	5.280489e-01 	5.918145e+38 	
1.200587e+06 	4.598329e+04 	1.160179e+09 	5.341113e-01 	5.918141e+38 	
1.200593e+06 	4.546082e+04 	1.157111e+09 	5.402434e-01 	5.918137e+38 	
1.200599e+06 	4.494429e+04 	1.154053e+09 	5.464459e-01 	5.918133e+38 	
1.200604e+06 	4.443362e+04 	1.151004e+09 	5.527196e-01 	5.918128e+38 	
1.200610e+06 	4.392876e+04 	1.147964e+09 	5.590654e-01 	5.918124e+38 	
1.200616e+06 	4.342964e+04 	1.144933e+09 	5.654840e-01 	5.918120e+38 	
1.200621e+06 	4.293618e+04 	1.141912e+09 	5.719763e-01 	5.918116e+38 	
1.200627e+06 	4.244834e+04 	1.138900e+09 	5.785431e-01 	5.918111e+38 	
1.200632e+06 	4.196603e+04 	1.135897e+09 	5.851854e-01 	5.918107e+38 	
1.200638e+06 	4.148921e+04 	1.132903e+09 	5.919039e-01 	5.918103e+38 	
1.200644e+06 	4.101780e+04 	1.129918e+09 	5.986995e-01 	5.918098e+38 	
1.200649e+06 	4.055175e+04 	1.126942e+09 	6.055732e-01 	5.918094e+38 	
1.200655e+06 	4.009100e+04 	1.123975e+09 	6.125258e-01 	5.918090e+38 	
1.200660e+06 	3.963548e+04 	1.121017e+09 	6.195583e-01 	5.918085e+38 	
1.200666e+06 	3.918513e+04 	1.118069e+09 	6.266715e-01 	5.918081e+38 	
1.200671e+06 	3.873990e+04 	1.115129e+09 	6.338663e-01 	5.918077e+38 	
1.200677e+06 	3.829974e+04 	1.112198e+09 	6.411438e-01 	5.918072e+38 	
1.200682e+06 	3.786457e+04 	1.109276e+09 	6.485049e-01 	5.918068e+38 	
1.200688e+06 	3.743435e+04 	1.106363e+09 	6.559504e-01 	5.918064e+38 	
1.200694e+06 	3.700901e+04 	1.103459e+09 	6.634815e-01 	5.918059e+38 	
1.200699e+06 	3.658851e+04 	1.100563e+09 	6.710990e-01 	5.918055e+38 	
1.200705e+06 	3.617279e+04 	1.097676e+09 	6.788040e-01 	5.918051e+38 	
1.200710e+06 	3.576178e+04 	1.094799e+09 	6.865974e-01 	5.918046e+38 	
1.200716e+06 	3.535545e+04 	1.091929e+09 	6.944804e-01 	5.918042e+38 	
1.200721e+06 	3.495374e+04 	1.089069e+09 	7.024539e-01 	5.918038e+38 	
1.200727e+06 	3.455659e+04 	1.086217e+09 	7.105189e-01 	5.918033e+38 	
1.200732e+06 	3.416395e+04 	1.083374e+09 	7.186765e-01 	5.918029e+38 	
1.200738e+06 	3.377578e+04 	1.080540e+09 	7.269278e-01 	5.918025e+38 	
1.200743e+06 	3.339201e+04 	1.077714e+09 	7.352738e-01 	5.918020e+38 	
1.200749e+06 	3.301261e+04 	1.074897e+09 	7.437157e-01 	5.918016e+38 	
1.200754e+06 	3.263751e+04 	1.072088e+09 	7.522544e-01 	5.918012e+38 	
1.200759e+06 	3.226668e+04 	1.069288e+09 	7.608913e-01 	5.918007e+38 	
1.200765e+06 	3.190006e+04 	1.066497e+09 	7.696273e-01 	5.918003e+38 	
1.200770e+06 	3.153761e+04 	1.063714e+09 	7.784636e-01 	5.917998e+38 	
1.200776e+06 	3.117927e+04 	1.060939e+09 	7.874014e-01 	5.917994e+38 	
1.200781e+06 	3.082501e+04 	1.058173e+09 	7.964418e-01 	5.917990e+38 	
1.200787e+06 	3.047477e+04 	1.055416e+09 	8.055860e-01 	5.917985e+38 	
1.200792e+06 	3.012851e+04 	1.052666e+09 	8.148352e-01 	5.917981e+38 	
1.200798e+06 	2.978619e+04 	1.049925e+09 	8.241906e-01 	5.917976e+38 	
1.200803e+06 	2.944775e+04 	1.047193e+09 	8.336534e-01 	5.917972e+38 	
1.200808e+06 	2.911316e+04 	1.044468e+09 	8.432249e-01 	5.917968e+38 	
1.200814e+06 	2.878238e+04 	1.041752e+09 	8.529063e-01 	5.917963e+38 	
1.200819e+06 	2.845535e+04 	1.039045e+09 	8.626988e-01 	5.917959e+38 	
1.200825e+06 	2.813203e+04 	1.036345e+09 	8.726038e-01 	5.917954e+38 	
1.200830e+06 	2.781239e+04 	1.033654e+09 	8.826225e-01 	5.917950e+38 	
1.200835e+06 	2.749638e+04 	1.030971e+09 	8.927563e-01 	5.917945e+38 	
1.200841e+06 	2.718397e+04 	1.028296e+09 	9.030064e-01 	5.917941e+38 	
1.200846e+06 	2.687510e+04 	1.025630e+09 	9.133742e-01 	5.917937e+38 	
1.200852e+06 	2.656974e+04 	1.022971e+09 	9.238611e-01 	5.917932e+38 	
1.200857e+06 	2.626785e+04 	1.020321e+09 	9.344684e-01 	5.917928e+38 	
1.200862e+06 	2.596939e+04 	1.017678e+09 	9.451974e-01 	5.917923e+38 	
1.200868e+06 	2.567432e+04 	1.015044e+09 	9.560497e-01 	5.917919e+38 	
1.200873e+06 	2.538261e+04 	1.012418e+09 	9.670266e-01 	5.917914e+38 	
1.200878e+06 	2.509421e+04 	1.009800e+09 	9.781295e-01 	5.917910e+38 	
1.200884e+06 	2.480908e+04 	1.007190e+09 	9.893599e-01 	5.917905e+38 	
1.200889e+06 	2.452720e+04 	1.004587e+09 	1.000719e+00 	5.917901e+38 	
1.200894e+06 	2.424852e+04 	1.001993e+09 	1.012209e+00 	5.917896e+38 	
1.200900e+06 	2.397300e+04 	9.994066e+08 	1.023831e+00 	5.917892e+38 	
1.200905e+06 	2.370062e+04 	9.968281e+08 	1.035586e+00 	5.917887e+38 	
1.200910e+06 	2.343133e+04 	9.942576e+08 	1.047476e+00 	5.917883e+38 	
1.200916e+06 	2.316510e+04 	9.916949e+08 	1.059503e+00 	5.917878e+38 	
1.200921e+06 	2.290189e+04 	9.891400e+08 	1.071667e+00 	5.917874e+38 	
1.200926e+06 	2.264168e+04 	9.865929e+08 	1.083972e+00 	5.917869e+38 	
1.200932e+06 	2.238442e+04 	9.840536e+08 	1.096418e+00 	5.917865e+38 	
1.200937e+06 	2.213008e+04 	9.815221e+08 	1.109006e+00 	5.917860e+38 	
1.200942e+06 	2.187864e+04 	9.789982e+08 	1.121739e+00 	5.917856e+38 	
1.200948e+06 	2.163005e+04 	9.764820e+08 	1.134619e+00 	5.917851e+38 	
1.200953e+06 	2.138429e+04 	9.739736e+08 	1.147646e+00 	5.917847e+38 	
1.200958e+06 	2.114131e+04 	9.714729e+08 	1.160823e+00 	5.917842e+38 	
1.200963e+06 	2.090110e+04 	9.689800e+08 	1.174151e+00 	5.917838e+38 	
1.200969e+06 	2.066362e+04 	9.664946e+08 	1.187632e+00 	5.917833e+38 	
1.200974e+06 	2.042884e+04 	9.640168e+08 	1.201268e+00 	5.917828e+38 	
1.200979e+06 	2.019672e+04 	9.615465e+08 	1.215061e+00 	5.917824e+38 	
1.200985e+06 	1.996725e+04 	9.590839e+08 	1.229012e+00 	5.917819e+38 	
1.200990e+06 	1.974037e+04 	9.566287e+08 	1.243123e+00 	5.917815e+38 	
1.200995e+06 	1.951608e+04 	9.541811e+08 	1.257396e+00 	5.917810e+38 	
1.201000e+06 	1.929434e+04 	9.517410e+08 	1.271833e+00 	5.917806e+38 	
1.201006e+06 	1.907511e+04 	9.493084e+08 	1.286436e+00 	5.917801e+38 	
1.201011e+06 	1.885838e+04 	9.468833e+08 	1.301207e+00 	5.917796e+38 	
1.201016e+06 	1.864411e+04 	9.444656e+08 	1.316147e+00 	5.917792e+38 	
1.201021e+06 	1.843227e+04 	9.420553e+08 	1.331258e+00 	5.917787e+38 	
1.201027e+06 	1.822284e+04 	9.396524e+08 	1.346543e+00 	5.917782e+38 	
1.201032e+06 	1.801579e+04 	9.372568e+08 	1.362004e+00 	5.917778e+38 	
1.201037e+06 	1.781109e+04 	9.348686e+08 	1.377642e+00 	5.917773e+38 	
1.201042e+06 	1.760872e+04 	9.324877e+08 	1.393460e+00 	5.917769e+38 	
1.201048e+06 	1.740865e+04 	9.301142e+08 	1.409460e+00 	5.917764e+38 	
1.201053e+06 	1.721085e+04 	9.277480e+08 	1.425643e+00 	5.917759e+38 	
1.201058e+06 	1.701529e+04 	9.253890e+08 	1.442012e+00 	5.917755e+38 	
1.201063e+06 	1.682196e+04 	9.230373e+08 	1.458568e+00 	5.917750e+38 	
1.201068e+06 	1.663083e+04 	9.206928e+08 	1.475316e+00 	5.917745e+38 	
1.201074e+06 	1.644187e+04 	9.183555e+08 	1.492255e+00 	5.917740e+38 	
1.201079e+06 	1.625505e+04 	9.160253e+08 	1.509389e+00 	5.917736e+38 	
1.201084e+06 	1.607036e+04 	9.137023e+08 	1.526719e+00 	5.917731e+38 	
1.201089e+06 	1.588777e+04 	9.113865e+08 	1.544249e+00 	5.917726e+38 	
1.201094e+06 	1.570725e+04 	9.090778e+08 	1.561980e+00 	5.917722e+38 	
1.201100e+06 	1.552878e+04 	9.067763e+08 	1.579914e+00 	5.917717e+38 	
1.201105e+06 	1.535234e+04 	9.044818e+08 	1.598054e+00 	5.917712e+38 	
1.201110e+06 	1.517790e+04 	9.021944e+08 	1.616403e+00 	5.917707e+38 	
1.201115e+06 	1.500545e+04 	8.999141e+08 	1.634962e+00 	5.917703e+38 	
1.201120e+06 	1.483496e+04 	8.976407e+08 	1.653735e+00 	5.917698e+38 	
1.201125e+06 	1.466640e+04 	8.953743e+08 	1.672723e+00 	5.917693e+38 	
1.201131e+06 	1.449976e+04 	8.931149e+08 	1.691929e+00 	5.917688e+38 	
1.201136e+06 	1.433501e+04 	8.908624e+08 	1.711355e+00 	5.917684e+38 	
1.201141e+06 	1.417213e+04 	8.886170e+08 	1.731005e+00 	5.917679e+38 	
1.201146e+06 	1.401111e+04 	8.863785e+08 	1.750880e+00 	5.917674e+38 	
1.201151e+06 	1.385191e+04 	8.841469e+08 	1.770984e+00 	5.917669e+38 	
1.201156e+06 	1.369452e+04 	8.819222e+08 	1.791318e+00 	5.917665e+38 	
1.201162e+06 	1.353892e+04 	8.797043e+08 	1.811886e+00 	5.917660e+38 	
1.201167e+06 	1.338509e+04 	8.774932e+08 	1.832690e+00 	5.917655e+38 	
1.201172e+06 	1.323301e+04 	8.752890e+08 	1.853733e+00 	5.917650e+38 	
1.201177e+06 	1.308265e+04 	8.730915e+08 	1.875017e+00 	5.917645e+38 	
1.201182e+06 	1.293401e+04 	8.709009e+08 	1.896546e+00 	5.917640e+38 	
1.201187e+06 	1.278705e+04 	8.687170e+08 	1.918322e+00 	5.917636e+38 	
1.201192e+06 	1.264176e+04 	8.665400e+08 	1.940348e+00 	5.917631e+38 	
1.201197e+06 	1.249812e+04 	8.643696e+08 	1.962627e+00 	5.917626e+38 	
1.201203e+06 	1.235612e+04 	8.622060e+08 	1.985162e+00 	5.917621e+38 	
1.201208e+06 	1.221573e+04 	8.600491e+08 	2.007956e+00 	5.917616e+38 	
1.201213e+06 	1.207693e+04 	8.578988e+08 	2.031011e+00 	5.917611e+38 	
1.201218e+06 	1.193971e+04 	8.557551e+08 	2.054331e+00 	5.917606e+38 	
1.201223e+06 	1.180405e+04 	8.536181e+08 	2.077919e+00 	5.917601e+38 	
1.201228e+06 	1.166993e+04 	8.514877e+08 	2.101778e+00 	5.917597e+38 	
1.201233e+06 	1.153733e+04 	8.493639e+08 	2.125910e+00 	5.917592e+38 	
1.201238e+06 	1.140624e+04 	8.472468e+08 	2.150320e+00 	5.917587e+38 	
1.201244e+06 	1.127664e+04 	8.451362e+08 	2.175010e+00 	5.917582e+38 	
1.201249e+06 	1.114852e+04 	8.430321e+08 	2.199984e+00 	5.917577e+38 	
1.201254e+06 	1.102185e+04 	8.409345e+08 	2.225244e+00 	5.917572e+38 	
1.201259e+06 	1.089662e+04 	8.388434e+08 	2.250794e+00 	5.917567e+38 	
1.201264e+06 	1.077281e+04 	8.367588e+08 	2.276638e+00 	5.917562e+38 	
1.201269e+06 	1.065040e+04 	8.346807e+08 	2.302779e+00 	5.917557e+38 	
1.201274e+06 	1.052939e+04 	8.326090e+08 	2.329219e+00 	5.917552e+38 	
1.201279e+06 	1.040976e+04 	8.305438e+08 	2.355963e+00 	5.917547e+38 	
1.201284e+06 	1.029148e+04 	8.284851e+08 	2.383015e+00 	5.917542e+38 	
1.201289e+06 	1.017455e+04 	8.264327e+08 	2.410377e+00 	5.917537e+38 	
1.201294e+06 	1.005894e+04 	8.243867e+08 	2.438053e+00 	5.917532e+38 	
1.201300e+06 	9.944650e+03 	8.223470e+08 	2.466047e+00 	5.917527e+38 	
1.201305e+06 	9.831657e+03 	8.203137e+08 	2.494362e+00 	5.917522e+38 	
1.201310e+06 	9.719948e+03 	8.182866e+08 	2.523003e+00 	5.917517e+38 	
1.201315e+06 	9.609509e+03 	8.162659e+08 	2.551972e+00 	5.917512e+38 	
1.201320e+06 	9.500324e+03 	8.142515e+08 	2.581274e+00 	5.917507e+38 	
1.201325e+06 	9.392380e+03 	8.122434e+08 	2.610913e+00 	5.917501e+38 	
1.201330e+06 	9.285663e+03 	8.102416e+08 	2.640891e+00 	5.917496e+38 	
1.201335e+06 	9.180157e+03 	8.082460e+08 	2.671214e+00 	5.917491e+38 	
1.201340e+06 	9.075851e+03 	8.062566e+08 	2.701886e+00 	5.917486e+38 	
1.201345e+06 	8.972730e+03 	8.042734e+08 	2.732909e+00 	5.917481e+38 	
1.201350e+06 	8.870781e+03 	8.022964e+08 	2.764289e+00 	5.917476e+38 	
1.201355e+06 	8.769989e+03 	8.003255e+08 	2.796029e+00 	5.917471e+38 	
1.201360e+06 	8.670344e+03 	7.983607e+08 	2.828133e+00 	5.917466e+38 	
1.201365e+06 	8.571830e+03 	7.964022e+08 	2.860606e+00 	5.917460e+38 	
1.201370e+06 	8.474435e+03 	7.944498e+08 	2.893452e+00 	5.917455e+38 	
1.201375e+06 	8.378148e+03 	7.925034e+08 	2.926675e+00 	5.917450e+38 	
1.201380e+06 	8.282954e+03 	7.905632e+08 	2.960279e+00 	5.917445e+38 	
1.201386e+06 	8.188842e+03 	7.886290e+08 	2.994270e+00 	5.917440e+38 	
1.201391e+06 	8.095799e+03 	7.867009e+08 	3.028650e+00 	5.917434e+38 	
1.201396e+06 	8.003813e+03 	7.847788e+08 	3.063426e+00 	5.917429e+38 	
1.201401e+06 	7.912873e+03 	7.828626e+08 	3.098601e+00 	5.917424e+38 	
1.201406e+06 	7.822966e+03 	7.809525e+08 	3.134179e+00 	5.917419e+38 	
1.201411e+06 	7.734080e+03 	7.790483e+08 	3.170167e+00 	5.917413e+38 	
1.201416e+06 	7.646204e+03 	7.771502e+08 	3.206567e+00 	5.917408e+38 	
1.201421e+06 	7.559327e+03 	7.752580e+08 	3.243385e+00 	5.917403e+38 	
1.201426e+06 	7.473437e+03 	7.733718e+08 	3.280627e+00 	5.917398e+38 	
1.201431e+06 	7.388522e+03 	7.714915e+08 	3.318295e+00 	5.917392e+38 	
1.201436e+06 	7.304573e+03 	7.696170e+08 	3.356397e+00 	5.917387e+38 	
1.201441e+06 	7.221577e+03 	7.677484e+08 	3.394935e+00 	5.917382e+38 	
1.201446e+06 	7.139525e+03 	7.658857e+08 	3.433917e+00 	5.917376e+38 	
1.201451e+06 	7.058404e+03 	7.640288e+08 	3.473346e+00 	5.917371e+38 	
1.201456e+06 	6.978206e+03 	7.621778e+08 	3.513227e+00 	5.917366e+38 	
1.201461e+06 	6.898918e+03 	7.603326e+08 	3.553567e+00 	5.917360e+38 	
1.201466e+06 	6.820532e+03 	7.584932e+08 	3.594370e+00 	5.917355e+38 	
1.201471e+06 	6.743036e+03 	7.566596e+08 	3.635641e+00 	5.917349e+38 	
1.201476e+06 	6.666421e+03 	7.548318e+08 	3.677386e+00 	5.917344e+38 	
1.201481e+06 	6.590676e+03 	7.530097e+08 	3.719611e+00 	5.917339e+38 	
1.201486e+06 	6.515791e+03 	7.511933e+08 	3.762320e+00 	5.917333e+38 	
1.201491e+06 	6.441758e+03 	7.493826e+08 	3.805520e+00 	5.917328e+38 	
1.201496e+06 	6.368566e+03 	7.475777e+08 	3.849216e+00 	5.917322e+38 	
1.201501e+06 	6.296205e+03 	7.457784e+08 	3.893413e+00 	5.917317e+38 	
1.201506e+06 	6.224667e+03 	7.439849e+08 	3.938118e+00 	5.917311e+38 	
1.201511e+06 	6.153941e+03 	7.421970e+08 	3.983337e+00 	5.917306e+38 	
1.201516e+06 	6.084019e+03 	7.404148e+08 	4.029074e+00 	5.917300e+38 	
1.201521e+06 	6.014892e+03 	7.386382e+08 	4.075337e+00 	5.917295e+38 	
1.201526e+06 	5.946550e+03 	7.368672e+08 	4.122131e+00 	5.917289e+38 	
1.201531e+06 	5.878984e+03 	7.351017e+08 	4.169462e+00 	5.917284e+38 	
1.201536e+06 	5.812186e+03 	7.333419e+08 	4.217337e+00 	5.917278e+38 	
1.201541e+06 	5.746147e+03 	7.315875e+08 	4.265762e+00 	5.917272e+38 	
