r (cm)      	rho (g/cm3) 	T (K)       	u (cm/s)    	L* (erg/s)  			 Edot= 6.185395e+39
1.000022e+06 	6.172399e+02 	2.017822e+09 	1.276487e+03 	1.481168e+39 	
1.000756e+06 	6.121232e+02 	2.013159e+09 	1.284577e+03 	1.479659e+39 	
1.001493e+06 	6.070490e+02 	2.008506e+09 	1.292717e+03 	1.478152e+39 	
1.002230e+06 	6.020169e+02 	2.003863e+09 	1.300907e+03 	1.476646e+39 	
1.002970e+06 	5.970265e+02 	1.999231e+09 	1.309147e+03 	1.475142e+39 	
1.003710e+06 	5.920774e+02 	1.994608e+09 	1.317437e+03 	1.473640e+39 	
1.004452e+06 	5.871694e+02 	1.989995e+09 	1.325777e+03 	1.472140e+39 	
1.005196e+06 	5.823020e+02 	1.985393e+09 	1.334168e+03 	1.470641e+39 	
1.005941e+06 	5.774750e+02 	1.980800e+09 	1.342610e+03 	1.469144e+39 	
1.006687e+06 	5.726881e+02 	1.976217e+09 	1.351103e+03 	1.467648e+39 	
1.007435e+06 	5.679407e+02 	1.971644e+09 	1.359648e+03 	1.466155e+39 	
1.008185e+06 	5.632328e+02 	1.967081e+09 	1.368246e+03 	1.464663e+39 	
1.008936e+06 	5.585639e+02 	1.962528e+09 	1.376895e+03 	1.463172e+39 	
1.009688e+06 	5.539336e+02 	1.957985e+09 	1.385597e+03 	1.461684e+39 	
1.010442e+06 	5.493418e+02 	1.953452e+09 	1.394352e+03 	1.460197e+39 	
1.011198e+06 	5.447880e+02 	1.948928e+09 	1.403160e+03 	1.458712e+39 	
1.011954e+06 	5.402720e+02 	1.944415e+09 	1.412022e+03 	1.457229e+39 	
1.012713e+06 	5.357934e+02 	1.939911e+09 	1.420937e+03 	1.455747e+39 	
1.013473e+06 	5.313520e+02 	1.935417e+09 	1.429907e+03 	1.454267e+39 	
1.014234e+06 	5.269473e+02 	1.930932e+09 	1.438930e+03 	1.452789e+39 	
1.014997e+06 	5.225792e+02 	1.926458e+09 	1.448009e+03 	1.451312e+39 	
1.015761e+06 	5.182472e+02 	1.921993e+09 	1.457143e+03 	1.449837e+39 	
1.016527e+06 	5.139512e+02 	1.917538e+09 	1.466332e+03 	1.448364e+39 	
1.017295e+06 	5.096908e+02 	1.913093e+09 	1.475577e+03 	1.446893e+39 	
1.018063e+06 	5.054657e+02 	1.908657e+09 	1.484878e+03 	1.445423e+39 	
1.018834e+06 	5.012757e+02 	1.904231e+09 	1.494235e+03 	1.443955e+39 	
1.019606e+06 	4.971203e+02 	1.899814e+09 	1.503649e+03 	1.442489e+39 	
1.020379e+06 	4.929995e+02 	1.895408e+09 	1.513121e+03 	1.441024e+39 	
1.021154e+06 	4.889127e+02 	1.891010e+09 	1.522649e+03 	1.439561e+39 	
1.021931e+06 	4.848599e+02 	1.886623e+09 	1.532235e+03 	1.438100e+39 	
1.022709e+06 	4.808406e+02 	1.882245e+09 	1.541879e+03 	1.436640e+39 	
1.023488e+06 	4.768547e+02 	1.877876e+09 	1.551581e+03 	1.435182e+39 	
1.024269e+06 	4.729018e+02 	1.873517e+09 	1.561342e+03 	1.433726e+39 	
1.025052e+06 	4.689817e+02 	1.869168e+09 	1.571163e+03 	1.432272e+39 	
1.025836e+06 	4.650941e+02 	1.864828e+09 	1.581042e+03 	1.430819e+39 	
1.026622e+06 	4.612387e+02 	1.860497e+09 	1.590982e+03 	1.429368e+39 	
1.027409e+06 	4.574152e+02 	1.856176e+09 	1.600981e+03 	1.427919e+39 	
1.028198e+06 	4.536235e+02 	1.851865e+09 	1.611041e+03 	1.426471e+39 	
1.028988e+06 	4.498631e+02 	1.847563e+09 	1.621161e+03 	1.425025e+39 	
1.029780e+06 	4.461340e+02 	1.843270e+09 	1.631343e+03 	1.423581e+39 	
1.030574e+06 	4.424358e+02 	1.838987e+09 	1.641586e+03 	1.422138e+39 	
1.031369e+06 	4.387682e+02 	1.834713e+09 	1.651891e+03 	1.420697e+39 	
1.032165e+06 	4.351310e+02 	1.830448e+09 	1.662258e+03 	1.419258e+39 	
1.032963e+06 	4.315240e+02 	1.826193e+09 	1.672688e+03 	1.417821e+39 	
1.033763e+06 	4.279469e+02 	1.821947e+09 	1.683180e+03 	1.416385e+39 	
1.034564e+06 	4.243994e+02 	1.817710e+09 	1.693736e+03 	1.414951e+39 	
1.035367e+06 	4.208813e+02 	1.813483e+09 	1.704356e+03 	1.413518e+39 	
1.036171e+06 	4.173924e+02 	1.809264e+09 	1.715039e+03 	1.412087e+39 	
1.036977e+06 	4.139325e+02 	1.805056e+09 	1.725787e+03 	1.410658e+39 	
1.037785e+06 	4.105012e+02 	1.800856e+09 	1.736600e+03 	1.409231e+39 	
1.038594e+06 	4.070983e+02 	1.796665e+09 	1.747477e+03 	1.407805e+39 	
1.039405e+06 	4.037237e+02 	1.792484e+09 	1.758420e+03 	1.406381e+39 	
1.040217e+06 	4.003770e+02 	1.788312e+09 	1.769429e+03 	1.404959e+39 	
1.041031e+06 	3.970581e+02 	1.784149e+09 	1.780504e+03 	1.403538e+39 	
1.041847e+06 	3.937666e+02 	1.779995e+09 	1.791646e+03 	1.402119e+39 	
1.042664e+06 	3.905025e+02 	1.775850e+09 	1.802855e+03 	1.400702e+39 	
1.043483e+06 	3.872654e+02 	1.771715e+09 	1.814132e+03 	1.399286e+39 	
1.044303e+06 	3.840552e+02 	1.767588e+09 	1.825476e+03 	1.397872e+39 	
1.045125e+06 	3.808716e+02 	1.763471e+09 	1.836888e+03 	1.396459e+39 	
1.045949e+06 	3.777143e+02 	1.759362e+09 	1.848369e+03 	1.395049e+39 	
1.046774e+06 	3.745833e+02 	1.755263e+09 	1.859918e+03 	1.393640e+39 	
1.047601e+06 	3.714781e+02 	1.751173e+09 	1.871537e+03 	1.392233e+39 	
1.048429e+06 	3.683988e+02 	1.747091e+09 	1.883226e+03 	1.390827e+39 	
1.049259e+06 	3.653449e+02 	1.743019e+09 	1.894985e+03 	1.389423e+39 	
1.050091e+06 	3.623164e+02 	1.738955e+09 	1.906815e+03 	1.388021e+39 	
1.050924e+06 	3.593130e+02 	1.734901e+09 	1.918715e+03 	1.386620e+39 	
1.051759e+06 	3.563344e+02 	1.730855e+09 	1.930687e+03 	1.385221e+39 	
1.052595e+06 	3.533806e+02 	1.726819e+09 	1.942731e+03 	1.383824e+39 	
1.053434e+06 	3.504512e+02 	1.722791e+09 	1.954847e+03 	1.382428e+39 	
1.054273e+06 	3.475462e+02 	1.718772e+09 	1.967035e+03 	1.381034e+39 	
1.055115e+06 	3.446652e+02 	1.714762e+09 	1.979297e+03 	1.379642e+39 	
1.055958e+06 	3.418081e+02 	1.710761e+09 	1.991631e+03 	1.378251e+39 	
1.056803e+06 	3.389747e+02 	1.706769e+09 	2.004040e+03 	1.376862e+39 	
1.057649e+06 	3.361647e+02 	1.702785e+09 	2.016523e+03 	1.375475e+39 	
1.058498e+06 	3.333781e+02 	1.698810e+09 	2.029081e+03 	1.374089e+39 	
1.059347e+06 	3.306145e+02 	1.694844e+09 	2.041714e+03 	1.372705e+39 	
1.060199e+06 	3.278739e+02 	1.690887e+09 	2.054422e+03 	1.371323e+39 	
1.061052e+06 	3.251560e+02 	1.686938e+09 	2.067206e+03 	1.369942e+39 	
1.061906e+06 	3.224606e+02 	1.682999e+09 	2.080067e+03 	1.368563e+39 	
1.062763e+06 	3.197876e+02 	1.679068e+09 	2.093005e+03 	1.367186e+39 	
1.063621e+06 	3.171367e+02 	1.675145e+09 	2.106020e+03 	1.365810e+39 	
1.064481e+06 	3.145078e+02 	1.671231e+09 	2.119113e+03 	1.364436e+39 	
1.065342e+06 	3.119007e+02 	1.667326e+09 	2.132283e+03 	1.363064e+39 	
1.066205e+06 	3.093152e+02 	1.663430e+09 	2.145533e+03 	1.361693e+39 	
1.067070e+06 	3.067511e+02 	1.659542e+09 	2.158861e+03 	1.360324e+39 	
1.067937e+06 	3.042083e+02 	1.655663e+09 	2.172270e+03 	1.358957e+39 	
1.068805e+06 	3.016865e+02 	1.651792e+09 	2.185758e+03 	1.357591e+39 	
1.069675e+06 	2.991857e+02 	1.647930e+09 	2.199327e+03 	1.356227e+39 	
1.070547e+06 	2.967056e+02 	1.644076e+09 	2.212976e+03 	1.354864e+39 	
1.071420e+06 	2.942461e+02 	1.640231e+09 	2.226707e+03 	1.353503e+39 	
1.072295e+06 	2.918069e+02 	1.636395e+09 	2.240520e+03 	1.352144e+39 	
1.073172e+06 	2.893880e+02 	1.632567e+09 	2.254415e+03 	1.350786e+39 	
1.074050e+06 	2.869891e+02 	1.628747e+09 	2.268392e+03 	1.349431e+39 	
1.074930e+06 	2.846101e+02 	1.624936e+09 	2.282453e+03 	1.348076e+39 	
1.075812e+06 	2.822508e+02 	1.621133e+09 	2.296598e+03 	1.346724e+39 	
1.076696e+06 	2.799111e+02 	1.617339e+09 	2.310827e+03 	1.345373e+39 	
1.077581e+06 	2.775908e+02 	1.613553e+09 	2.325141e+03 	1.344023e+39 	
1.078468e+06 	2.752897e+02 	1.609776e+09 	2.339539e+03 	1.342676e+39 	
1.079357e+06 	2.730076e+02 	1.606007e+09 	2.354024e+03 	1.341330e+39 	
1.080248e+06 	2.707445e+02 	1.602247e+09 	2.368594e+03 	1.339985e+39 	
1.081140e+06 	2.685002e+02 	1.598494e+09 	2.383251e+03 	1.338642e+39 	
1.082034e+06 	2.662745e+02 	1.594750e+09 	2.397995e+03 	1.337301e+39 	
1.082930e+06 	2.640672e+02 	1.591015e+09 	2.412827e+03 	1.335962e+39 	
1.083827e+06 	2.618782e+02 	1.587287e+09 	2.427747e+03 	1.334624e+39 	
1.084726e+06 	2.597074e+02 	1.583568e+09 	2.442755e+03 	1.333288e+39 	
1.085627e+06 	2.575545e+02 	1.579857e+09 	2.457853e+03 	1.331953e+39 	
1.086530e+06 	2.554195e+02 	1.576155e+09 	2.473040e+03 	1.330620e+39 	
1.087435e+06 	2.533022e+02 	1.572460e+09 	2.488317e+03 	1.329289e+39 	
1.088341e+06 	2.512025e+02 	1.568774e+09 	2.503685e+03 	1.327959e+39 	
1.089249e+06 	2.491201e+02 	1.565096e+09 	2.519144e+03 	1.326631e+39 	
1.090159e+06 	2.470550e+02 	1.561427e+09 	2.534695e+03 	1.325304e+39 	
1.091071e+06 	2.450071e+02 	1.557765e+09 	2.550338e+03 	1.323980e+39 	
1.091984e+06 	2.429761e+02 	1.554112e+09 	2.566073e+03 	1.322656e+39 	
1.092899e+06 	2.409619e+02 	1.550466e+09 	2.581902e+03 	1.321335e+39 	
1.093816e+06 	2.389645e+02 	1.546829e+09 	2.597824e+03 	1.320015e+39 	
1.094735e+06 	2.369836e+02 	1.543200e+09 	2.613841e+03 	1.318696e+39 	
1.095655e+06 	2.350191e+02 	1.539579e+09 	2.629953e+03 	1.317380e+39 	
1.096578e+06 	2.330709e+02 	1.535966e+09 	2.646160e+03 	1.316065e+39 	
1.097502e+06 	2.311388e+02 	1.532361e+09 	2.662462e+03 	1.314751e+39 	
1.098428e+06 	2.292228e+02 	1.528765e+09 	2.678862e+03 	1.313439e+39 	
1.099356e+06 	2.273227e+02 	1.525176e+09 	2.695358e+03 	1.312129e+39 	
1.100285e+06 	2.254383e+02 	1.521595e+09 	2.711951e+03 	1.310820e+39 	
1.101217e+06 	2.235695e+02 	1.518022e+09 	2.728643e+03 	1.309513e+39 	
1.102150e+06 	2.217162e+02 	1.514457e+09 	2.745433e+03 	1.308208e+39 	
1.103085e+06 	2.198783e+02 	1.510900e+09 	2.762323e+03 	1.306904e+39 	
1.104022e+06 	2.180556e+02 	1.507351e+09 	2.779312e+03 	1.305602e+39 	
1.104960e+06 	2.162480e+02 	1.503810e+09 	2.796402e+03 	1.304302e+39 	
1.105901e+06 	2.144555e+02 	1.500277e+09 	2.813592e+03 	1.303003e+39 	
1.106843e+06 	2.126777e+02 	1.496752e+09 	2.830884e+03 	1.301705e+39 	
1.107787e+06 	2.109147e+02 	1.493235e+09 	2.848278e+03 	1.300410e+39 	
1.108733e+06 	2.091664e+02 	1.489725e+09 	2.865775e+03 	1.299116e+39 	
1.109681e+06 	2.074325e+02 	1.486224e+09 	2.883374e+03 	1.297823e+39 	
1.110631e+06 	2.057130e+02 	1.482730e+09 	2.901078e+03 	1.296532e+39 	
1.111582e+06 	2.040077e+02 	1.479244e+09 	2.918885e+03 	1.295243e+39 	
1.112536e+06 	2.023166e+02 	1.475765e+09 	2.936798e+03 	1.293955e+39 	
1.113491e+06 	2.006395e+02 	1.472295e+09 	2.954816e+03 	1.292669e+39 	
1.114448e+06 	1.989763e+02 	1.468832e+09 	2.972940e+03 	1.291385e+39 	
1.115407e+06 	1.973268e+02 	1.465377e+09 	2.991171e+03 	1.290102e+39 	
1.116368e+06 	1.956911e+02 	1.461930e+09 	3.009510e+03 	1.288821e+39 	
1.117330e+06 	1.940689e+02 	1.458491e+09 	3.027956e+03 	1.287541e+39 	
1.118295e+06 	1.924602e+02 	1.455059e+09 	3.046510e+03 	1.286263e+39 	
1.119261e+06 	1.908648e+02 	1.451635e+09 	3.065174e+03 	1.284986e+39 	
1.120230e+06 	1.892826e+02 	1.448218e+09 	3.083947e+03 	1.283711e+39 	
1.121200e+06 	1.877135e+02 	1.444810e+09 	3.102831e+03 	1.282438e+39 	
1.122172e+06 	1.861575e+02 	1.441408e+09 	3.121825e+03 	1.281167e+39 	
1.123146e+06 	1.846143e+02 	1.438015e+09 	3.140932e+03 	1.279897e+39 	
1.124122e+06 	1.830840e+02 	1.434629e+09 	3.160151e+03 	1.278628e+39 	
1.125100e+06 	1.815663e+02 	1.431251e+09 	3.179482e+03 	1.277361e+39 	
1.126079e+06 	1.800612e+02 	1.427880e+09 	3.198927e+03 	1.276096e+39 	
1.127061e+06 	1.785686e+02 	1.424517e+09 	3.218486e+03 	1.274832e+39 	
1.128045e+06 	1.770883e+02 	1.421161e+09 	3.238160e+03 	1.273570e+39 	
1.129030e+06 	1.756204e+02 	1.417813e+09 	3.257949e+03 	1.272309e+39 	
1.130017e+06 	1.741646e+02 	1.414473e+09 	3.277854e+03 	1.271051e+39 	
1.131007e+06 	1.727208e+02 	1.411140e+09 	3.297875e+03 	1.269793e+39 	
1.131998e+06 	1.712890e+02 	1.407814e+09 	3.318014e+03 	1.268537e+39 	
1.132991e+06 	1.698691e+02 	1.404496e+09 	3.338271e+03 	1.267283e+39 	
1.133986e+06 	1.684610e+02 	1.401185e+09 	3.358647e+03 	1.266031e+39 	
1.134983e+06 	1.670645e+02 	1.397882e+09 	3.379143e+03 	1.264780e+39 	
1.135982e+06 	1.656797e+02 	1.394586e+09 	3.399758e+03 	1.263530e+39 	
1.136983e+06 	1.643063e+02 	1.391298e+09 	3.420494e+03 	1.262282e+39 	
1.137986e+06 	1.629442e+02 	1.388017e+09 	3.441351e+03 	1.261036e+39 	
1.138990e+06 	1.615935e+02 	1.384743e+09 	3.462330e+03 	1.259791e+39 	
1.139997e+06 	1.602540e+02 	1.381477e+09 	3.483432e+03 	1.258548e+39 	
1.141006e+06 	1.589256e+02 	1.378218e+09 	3.504656e+03 	1.257307e+39 	
1.142016e+06 	1.576081e+02 	1.374966e+09 	3.526005e+03 	1.256067e+39 	
1.143029e+06 	1.563016e+02 	1.371722e+09 	3.547479e+03 	1.254828e+39 	
1.144044e+06 	1.550060e+02 	1.368485e+09 	3.569079e+03 	1.253592e+39 	
1.145060e+06 	1.537211e+02 	1.365255e+09 	3.590805e+03 	1.252356e+39 	
1.146079e+06 	1.524468e+02 	1.362033e+09 	3.612657e+03 	1.251123e+39 	
1.147099e+06 	1.511831e+02 	1.358818e+09 	3.634637e+03 	1.249891e+39 	
1.148122e+06 	1.499298e+02 	1.355610e+09 	3.656746e+03 	1.248660e+39 	
1.149146e+06 	1.486870e+02 	1.352409e+09 	3.678983e+03 	1.247431e+39 	
1.150173e+06 	1.474545e+02 	1.349216e+09 	3.701350e+03 	1.246204e+39 	
1.151201e+06 	1.462321e+02 	1.346029e+09 	3.723847e+03 	1.244978e+39 	
1.152232e+06 	1.450199e+02 	1.342850e+09 	3.746475e+03 	1.243754e+39 	
1.153264e+06 	1.438178e+02 	1.339678e+09 	3.769235e+03 	1.242531e+39 	
1.154298e+06 	1.426256e+02 	1.336514e+09 	3.792129e+03 	1.241310e+39 	
1.155335e+06 	1.414433e+02 	1.333356e+09 	3.815155e+03 	1.240091e+39 	
1.156373e+06 	1.402708e+02 	1.330206e+09 	3.838316e+03 	1.238873e+39 	
1.157414e+06 	1.391080e+02 	1.327062e+09 	3.861611e+03 	1.237656e+39 	
1.158456e+06 	1.379549e+02 	1.323926e+09 	3.885042e+03 	1.236441e+39 	
1.159501e+06 	1.368113e+02 	1.320797e+09 	3.908609e+03 	1.235228e+39 	
1.160548e+06 	1.356772e+02 	1.317674e+09 	3.932314e+03 	1.234016e+39 	
1.161596e+06 	1.345525e+02 	1.314559e+09 	3.956156e+03 	1.232806e+39 	
1.162647e+06 	1.334372e+02 	1.311451e+09 	3.980136e+03 	1.231597e+39 	
1.163700e+06 	1.323310e+02 	1.308350e+09 	4.004256e+03 	1.230390e+39 	
1.164754e+06 	1.312341e+02 	1.305256e+09 	4.028517e+03 	1.229185e+39 	
1.165811e+06 	1.301462e+02 	1.302169e+09 	4.052918e+03 	1.227981e+39 	
1.166870e+06 	1.290674e+02 	1.299089e+09 	4.077461e+03 	1.226778e+39 	
1.167931e+06 	1.279974e+02 	1.296016e+09 	4.102147e+03 	1.225577e+39 	
1.168994e+06 	1.269364e+02 	1.292950e+09 	4.126976e+03 	1.224378e+39 	
1.170059e+06 	1.258842e+02 	1.289891e+09 	4.151949e+03 	1.223180e+39 	
1.171126e+06 	1.248407e+02 	1.286838e+09 	4.177067e+03 	1.221984e+39 	
1.172195e+06 	1.238058e+02 	1.283793e+09 	4.202330e+03 	1.220789e+39 	
1.173266e+06 	1.227795e+02 	1.280754e+09 	4.227740e+03 	1.219596e+39 	
1.174340e+06 	1.217617e+02 	1.277723e+09 	4.253297e+03 	1.218405e+39 	
1.175415e+06 	1.207524e+02 	1.274698e+09 	4.279003e+03 	1.217215e+39 	
1.176493e+06 	1.197514e+02 	1.271680e+09 	4.304857e+03 	1.216026e+39 	
1.177572e+06 	1.187587e+02 	1.268669e+09 	4.330862e+03 	1.214839e+39 	
1.178654e+06 	1.177743e+02 	1.265665e+09 	4.357016e+03 	1.213654e+39 	
1.179738e+06 	1.167980e+02 	1.262667e+09 	4.383323e+03 	1.212470e+39 	
1.180824e+06 	1.158298e+02 	1.259676e+09 	4.409781e+03 	1.211288e+39 	
1.181912e+06 	1.148696e+02 	1.256693e+09 	4.436393e+03 	1.210107e+39 	
1.183002e+06 	1.139174e+02 	1.253715e+09 	4.463158e+03 	1.208928e+39 	
1.184094e+06 	1.129731e+02 	1.250745e+09 	4.490078e+03 	1.207750e+39 	
1.185188e+06 	1.120366e+02 	1.247781e+09 	4.517154e+03 	1.206574e+39 	
1.186285e+06 	1.111078e+02 	1.244824e+09 	4.544386e+03 	1.205399e+39 	
1.187383e+06 	1.101868e+02 	1.241874e+09 	4.571776e+03 	1.204226e+39 	
1.188484e+06 	1.092734e+02 	1.238931e+09 	4.599325e+03 	1.203055e+39 	
1.189587e+06 	1.083676e+02 	1.235994e+09 	4.627032e+03 	1.201884e+39 	
1.190692e+06 	1.074693e+02 	1.233064e+09 	4.654899e+03 	1.200716e+39 	
1.191799e+06 	1.065784e+02 	1.230140e+09 	4.682927e+03 	1.199549e+39 	
1.192908e+06 	1.056949e+02 	1.227223e+09 	4.711117e+03 	1.198383e+39 	
1.194020e+06 	1.048188e+02 	1.224313e+09 	4.739469e+03 	1.197220e+39 	
1.195134e+06 	1.039499e+02 	1.221409e+09 	4.767985e+03 	1.196057e+39 	
1.196249e+06 	1.030882e+02 	1.218512e+09 	4.796665e+03 	1.194896e+39 	
1.197367e+06 	1.022336e+02 	1.215622e+09 	4.825511e+03 	1.193737e+39 	
1.198487e+06 	1.013862e+02 	1.212738e+09 	4.854523e+03 	1.192579e+39 	
1.199610e+06 	1.005457e+02 	1.209860e+09 	4.883703e+03 	1.191423e+39 	
1.200734e+06 	9.971225e+01 	1.206990e+09 	4.913050e+03 	1.190268e+39 	
1.201861e+06 	9.888568e+01 	1.204125e+09 	4.942567e+03 	1.189115e+39 	
1.202990e+06 	9.806597e+01 	1.201267e+09 	4.972253e+03 	1.187963e+39 	
1.204121e+06 	9.725305e+01 	1.198416e+09 	5.002110e+03 	1.186813e+39 	
1.205254e+06 	9.644687e+01 	1.195571e+09 	5.032138e+03 	1.185664e+39 	
1.206389e+06 	9.564737e+01 	1.192733e+09 	5.062340e+03 	1.184517e+39 	
1.207527e+06 	9.485450e+01 	1.189901e+09 	5.092715e+03 	1.183371e+39 	
1.208667e+06 	9.406821e+01 	1.187076e+09 	5.123265e+03 	1.182227e+39 	
1.209809e+06 	9.328843e+01 	1.184257e+09 	5.153991e+03 	1.181084e+39 	
1.210953e+06 	9.251511e+01 	1.181444e+09 	5.184894e+03 	1.179943e+39 	
1.212100e+06 	9.174821e+01 	1.178638e+09 	5.215973e+03 	1.178803e+39 	
1.213248e+06 	9.098766e+01 	1.175838e+09 	5.247232e+03 	1.177665e+39 	
1.214399e+06 	9.023341e+01 	1.173045e+09 	5.278670e+03 	1.176529e+39 	
1.215552e+06 	8.948542e+01 	1.170258e+09 	5.310288e+03 	1.175394e+39 	
1.216708e+06 	8.874363e+01 	1.167477e+09 	5.342087e+03 	1.174260e+39 	
1.217865e+06 	8.800799e+01 	1.164702e+09 	5.374069e+03 	1.173128e+39 	
1.219025e+06 	8.727845e+01 	1.161934e+09 	5.406234e+03 	1.171997e+39 	
1.220188e+06 	8.655495e+01 	1.159173e+09 	5.438584e+03 	1.170868e+39 	
1.221352e+06 	8.583745e+01 	1.156417e+09 	5.471120e+03 	1.169741e+39 	
1.222519e+06 	8.512590e+01 	1.153668e+09 	5.503842e+03 	1.168614e+39 	
1.223687e+06 	8.442025e+01 	1.150925e+09 	5.536752e+03 	1.167490e+39 	
1.224859e+06 	8.372045e+01 	1.148189e+09 	5.569850e+03 	1.166367e+39 	
1.226032e+06 	8.302645e+01 	1.145458e+09 	5.603137e+03 	1.165245e+39 	
1.227208e+06 	8.233820e+01 	1.142734e+09 	5.636615e+03 	1.164125e+39 	
1.228386e+06 	8.165566e+01 	1.140016e+09 	5.670285e+03 	1.163006e+39 	
1.229566e+06 	8.097877e+01 	1.137304e+09 	5.704147e+03 	1.161889e+39 	
1.230749e+06 	8.030750e+01 	1.134599e+09 	5.738203e+03 	1.160774e+39 	
1.231934e+06 	7.964179e+01 	1.131899e+09 	5.772454e+03 	1.159660e+39 	
1.233121e+06 	7.898159e+01 	1.129206e+09 	5.806901e+03 	1.158547e+39 	
1.234310e+06 	7.832688e+01 	1.126519e+09 	5.841545e+03 	1.157436e+39 	
1.235502e+06 	7.767758e+01 	1.123838e+09 	5.876386e+03 	1.156326e+39 	
1.236696e+06 	7.703367e+01 	1.121163e+09 	5.911427e+03 	1.155218e+39 	
1.237893e+06 	7.639510e+01 	1.118495e+09 	5.946668e+03 	1.154111e+39 	
1.239091e+06 	7.576183e+01 	1.115832e+09 	5.982110e+03 	1.153006e+39 	
1.240293e+06 	7.513380e+01 	1.113176e+09 	6.017754e+03 	1.151902e+39 	
1.241496e+06 	7.451097e+01 	1.110525e+09 	6.053601e+03 	1.150800e+39 	
1.242702e+06 	7.389331e+01 	1.107881e+09 	6.089653e+03 	1.149699e+39 	
1.243910e+06 	7.328078e+01 	1.105242e+09 	6.125911e+03 	1.148600e+39 	
1.245120e+06 	7.267331e+01 	1.102610e+09 	6.162376e+03 	1.147502e+39 	
1.246333e+06 	7.207089e+01 	1.099984e+09 	6.199049e+03 	1.146406e+39 	
1.247548e+06 	7.147345e+01 	1.097364e+09 	6.235931e+03 	1.145311e+39 	
1.248765e+06 	7.088097e+01 	1.094749e+09 	6.273022e+03 	1.144218e+39 	
1.249985e+06 	7.029341e+01 	1.092141e+09 	6.310325e+03 	1.143126e+39 	
1.251208e+06 	6.971071e+01 	1.089539e+09 	6.347841e+03 	1.142035e+39 	
1.252432e+06 	6.913284e+01 	1.086942e+09 	6.385569e+03 	1.140947e+39 	
1.253659e+06 	6.855976e+01 	1.084352e+09 	6.423512e+03 	1.139859e+39 	
1.254888e+06 	6.799144e+01 	1.081768e+09 	6.461672e+03 	1.138773e+39 	
1.256120e+06 	6.742782e+01 	1.079189e+09 	6.500049e+03 	1.137689e+39 	
1.257354e+06 	6.686888e+01 	1.076616e+09 	6.538644e+03 	1.136606e+39 	
1.258591e+06 	6.631457e+01 	1.074050e+09 	6.577459e+03 	1.135524e+39 	
1.259830e+06 	6.576485e+01 	1.071489e+09 	6.616494e+03 	1.134444e+39 	
1.261071e+06 	6.521969e+01 	1.068934e+09 	6.655751e+03 	1.133365e+39 	
1.262315e+06 	6.467905e+01 	1.066385e+09 	6.695231e+03 	1.132288e+39 	
1.263561e+06 	6.414290e+01 	1.063841e+09 	6.734935e+03 	1.131212e+39 	
1.264809e+06 	6.361118e+01 	1.061304e+09 	6.774864e+03 	1.130138e+39 	
1.266060e+06 	6.308388e+01 	1.058772e+09 	6.815020e+03 	1.129065e+39 	
1.267314e+06 	6.256094e+01 	1.056246e+09 	6.855404e+03 	1.127994e+39 	
1.268570e+06 	6.204234e+01 	1.053726e+09 	6.896017e+03 	1.126924e+39 	
1.269828e+06 	6.152804e+01 	1.051212e+09 	6.936861e+03 	1.125856e+39 	
1.271088e+06 	6.101800e+01 	1.048704e+09 	6.977937e+03 	1.124789e+39 	
1.272352e+06 	6.051220e+01 	1.046201e+09 	7.019245e+03 	1.123723e+39 	
