r (cm)      	rho (g/cm3) 	T (K)       	u (cm/s)    	L* (erg/s)  			 Edot= 6.181906e+39
1.200070e+06 	5.099859e+02 	1.585612e+09 	8.456250e+02 	6.563637e+38 	
1.201543e+06 	5.052576e+02 	1.581429e+09 	8.511709e+02 	6.554721e+38 	
1.203019e+06 	5.005732e+02 	1.577256e+09 	8.567517e+02 	6.545820e+38 	
1.204498e+06 	4.959321e+02 	1.573094e+09 	8.623675e+02 	6.536934e+38 	
1.205980e+06 	4.913342e+02 	1.568942e+09 	8.680186e+02 	6.528062e+38 	
1.207465e+06 	4.867788e+02 	1.564801e+09 	8.737049e+02 	6.519206e+38 	
1.208953e+06 	4.822657e+02 	1.560670e+09 	8.794270e+02 	6.510363e+38 	
1.210445e+06 	4.777944e+02 	1.556550e+09 	8.851848e+02 	6.501536e+38 	
1.211939e+06 	4.733645e+02 	1.552440e+09 	8.909786e+02 	6.492723e+38 	
1.213437e+06 	4.689758e+02 	1.548340e+09 	8.968087e+02 	6.483925e+38 	
1.214938e+06 	4.646277e+02 	1.544250e+09 	9.026751e+02 	6.475141e+38 	
1.216443e+06 	4.603199e+02 	1.540171e+09 	9.085783e+02 	6.466373e+38 	
1.217950e+06 	4.560521e+02 	1.536102e+09 	9.145184e+02 	6.457619e+38 	
1.219461e+06 	4.518239e+02 	1.532043e+09 	9.204957e+02 	6.448880e+38 	
1.220975e+06 	4.476348e+02 	1.527995e+09 	9.265103e+02 	6.440155e+38 	
1.222492e+06 	4.434846e+02 	1.523957e+09 	9.325625e+02 	6.431445e+38 	
1.224012e+06 	4.393729e+02 	1.519929e+09 	9.386525e+02 	6.422749e+38 	
1.225535e+06 	4.352993e+02 	1.515911e+09 	9.447804e+02 	6.414067e+38 	
1.227062e+06 	4.312634e+02 	1.511903e+09 	9.509466e+02 	6.405401e+38 	
1.228592e+06 	4.272650e+02 	1.507905e+09 	9.571512e+02 	6.396749e+38 	
1.230125e+06 	4.233036e+02 	1.503917e+09 	9.633944e+02 	6.388111e+38 	
1.231662e+06 	4.193790e+02 	1.499940e+09 	9.696766e+02 	6.379489e+38 	
1.233202e+06 	4.154908e+02 	1.495972e+09 	9.759981e+02 	6.370880e+38 	
1.234745e+06 	4.116386e+02 	1.492015e+09 	9.823590e+02 	6.362286e+38 	
1.236291e+06 	4.078221e+02 	1.488067e+09 	9.887594e+02 	6.353707e+38 	
1.237840e+06 	4.040410e+02 	1.484130e+09 	9.951998e+02 	6.345141e+38 	
1.239393e+06 	4.002950e+02 	1.480202e+09 	1.001680e+03 	6.336590e+38 	
1.240949e+06 	3.965837e+02 	1.476284e+09 	1.008201e+03 	6.328054e+38 	
1.242509e+06 	3.929068e+02 	1.472376e+09 	1.014762e+03 	6.319532e+38 	
1.244072e+06 	3.892640e+02 	1.468478e+09 	1.021364e+03 	6.311024e+38 	
1.245638e+06 	3.856549e+02 	1.464590e+09 	1.028007e+03 	6.302531e+38 	
1.247207e+06 	3.820794e+02 	1.460712e+09 	1.034692e+03 	6.294053e+38 	
1.248780e+06 	3.785369e+02 	1.456843e+09 	1.041418e+03 	6.285588e+38 	
1.250356e+06 	3.750274e+02 	1.452985e+09 	1.048186e+03 	6.277138e+38 	
1.251936e+06 	3.715503e+02 	1.449136e+09 	1.054995e+03 	6.268701e+38 	
1.253518e+06 	3.681055e+02 	1.445296e+09 	1.061848e+03 	6.260279e+38 	
1.255104e+06 	3.646927e+02 	1.441467e+09 	1.068742e+03 	6.251872e+38 	
1.256694e+06 	3.613114e+02 	1.437647e+09 	1.075679e+03 	6.243478e+38 	
1.258287e+06 	3.579616e+02 	1.433837e+09 	1.082660e+03 	6.235099e+38 	
1.259883e+06 	3.546428e+02 	1.430036e+09 	1.089683e+03 	6.226735e+38 	
1.261483e+06 	3.513547e+02 	1.426245e+09 	1.096751e+03 	6.218384e+38 	
1.263086e+06 	3.480972e+02 	1.422464e+09 	1.103862e+03 	6.210048e+38 	
1.264692e+06 	3.448698e+02 	1.418692e+09 	1.111017e+03 	6.201726e+38 	
1.266302e+06 	3.416724e+02 	1.414930e+09 	1.118217e+03 	6.193417e+38 	
1.267916e+06 	3.385046e+02 	1.411177e+09 	1.125461e+03 	6.185123e+38 	
1.269532e+06 	3.353662e+02 	1.407434e+09 	1.132750e+03 	6.176843e+38 	
1.271152e+06 	3.322568e+02 	1.403701e+09 	1.140084e+03 	6.168577e+38 	
1.272776e+06 	3.291763e+02 	1.399976e+09 	1.147463e+03 	6.160325e+38 	
1.274403e+06 	3.261244e+02 	1.396262e+09 	1.154888e+03 	6.152088e+38 	
1.276034e+06 	3.231008e+02 	1.392556e+09 	1.162359e+03 	6.143864e+38 	
1.277668e+06 	3.201052e+02 	1.388860e+09 	1.169876e+03 	6.135655e+38 	
1.279305e+06 	3.171373e+02 	1.385174e+09 	1.177440e+03 	6.127459e+38 	
1.280946e+06 	3.141970e+02 	1.381497e+09 	1.185051e+03 	6.119277e+38 	
1.282590e+06 	3.112840e+02 	1.377829e+09 	1.192708e+03 	6.111109e+38 	
1.284238e+06 	3.083979e+02 	1.374170e+09 	1.200413e+03 	6.102955e+38 	
1.285890e+06 	3.055386e+02 	1.370521e+09 	1.208165e+03 	6.094816e+38 	
1.287545e+06 	3.027059e+02 	1.366881e+09 	1.215965e+03 	6.086690e+38 	
1.289203e+06 	2.998993e+02 	1.363250e+09 	1.223813e+03 	6.078578e+38 	
1.290865e+06 	2.971188e+02 	1.359629e+09 	1.231710e+03 	6.070480e+38 	
1.292530e+06 	2.943641e+02 	1.356017e+09 	1.239655e+03 	6.062396e+38 	
1.294199e+06 	2.916350e+02 	1.352414e+09 	1.247649e+03 	6.054326e+38 	
1.295872e+06 	2.889311e+02 	1.348820e+09 	1.255693e+03 	6.046269e+38 	
1.297548e+06 	2.862523e+02 	1.345235e+09 	1.263786e+03 	6.038226e+38 	
1.299228e+06 	2.835983e+02 	1.341659e+09 	1.271929e+03 	6.030197e+38 	
1.300911e+06 	2.809690e+02 	1.338093e+09 	1.280122e+03 	6.022182e+38 	
1.302598e+06 	2.783640e+02 	1.334535e+09 	1.288366e+03 	6.014181e+38 	
1.304288e+06 	2.757831e+02 	1.330986e+09 	1.296660e+03 	6.006194e+38 	
1.305982e+06 	2.732262e+02 	1.327447e+09 	1.305005e+03 	5.998220e+38 	
1.307680e+06 	2.706930e+02 	1.323917e+09 	1.313402e+03 	5.990260e+38 	
1.309381e+06 	2.681833e+02 	1.320395e+09 	1.321851e+03 	5.982314e+38 	
1.311086e+06 	2.656969e+02 	1.316883e+09 	1.330351e+03 	5.974381e+38 	
1.312794e+06 	2.632335e+02 	1.313379e+09 	1.338903e+03 	5.966462e+38 	
1.314506e+06 	2.607930e+02 	1.309885e+09 	1.347508e+03 	5.958557e+38 	
1.316222e+06 	2.583750e+02 	1.306399e+09 	1.356166e+03 	5.950665e+38 	
1.317941e+06 	2.559795e+02 	1.302922e+09 	1.364877e+03 	5.942787e+38 	
1.319664e+06 	2.536062e+02 	1.299454e+09 	1.373642e+03 	5.934923e+38 	
1.321391e+06 	2.512549e+02 	1.295995e+09 	1.382460e+03 	5.927072e+38 	
1.323121e+06 	2.489255e+02 	1.292545e+09 	1.391332e+03 	5.919235e+38 	
1.324855e+06 	2.466176e+02 	1.289103e+09 	1.400259e+03 	5.911412e+38 	
1.326593e+06 	2.443311e+02 	1.285671e+09 	1.409241e+03 	5.903602e+38 	
1.328334e+06 	2.420658e+02 	1.282247e+09 	1.418278e+03 	5.895805e+38 	
1.330080e+06 	2.398215e+02 	1.278832e+09 	1.427370e+03 	5.888022e+38 	
1.331828e+06 	2.375980e+02 	1.275425e+09 	1.436517e+03 	5.880252e+38 	
1.333581e+06 	2.353951e+02 	1.272027e+09 	1.445721e+03 	5.872496e+38 	
1.335337e+06 	2.332127e+02 	1.268638e+09 	1.454981e+03 	5.864754e+38 	
1.337097e+06 	2.310505e+02 	1.265258e+09 	1.464297e+03 	5.857025e+38 	
1.338861e+06 	2.289083e+02 	1.261886e+09 	1.473671e+03 	5.849309e+38 	
1.340628e+06 	2.267860e+02 	1.258523e+09 	1.483103e+03 	5.841607e+38 	
1.342400e+06 	2.246834e+02 	1.255168e+09 	1.492591e+03 	5.833918e+38 	
1.344174e+06 	2.226002e+02 	1.251822e+09 	1.502138e+03 	5.826243e+38 	
1.345953e+06 	2.205364e+02 	1.248485e+09 	1.511743e+03 	5.818580e+38 	
1.347736e+06 	2.184917e+02 	1.245156e+09 	1.521407e+03 	5.810932e+38 	
1.349522e+06 	2.164660e+02 	1.241835e+09 	1.531130e+03 	5.803296e+38 	
1.351312e+06 	2.144590e+02 	1.238523e+09 	1.540912e+03 	5.795674e+38 	
1.353106e+06 	2.124707e+02 	1.235220e+09 	1.550754e+03 	5.788066e+38 	
1.354904e+06 	2.105008e+02 	1.231925e+09 	1.560656e+03 	5.780470e+38 	
1.356706e+06 	2.085491e+02 	1.228638e+09 	1.570619e+03 	5.772888e+38 	
1.358511e+06 	2.066156e+02 	1.225360e+09 	1.580642e+03 	5.765319e+38 	
1.360320e+06 	2.047000e+02 	1.222091e+09 	1.590727e+03 	5.757764e+38 	
1.362133e+06 	2.028021e+02 	1.218829e+09 	1.600873e+03 	5.750221e+38 	
1.363950e+06 	2.009219e+02 	1.215576e+09 	1.611080e+03 	5.742691e+38 	
1.365771e+06 	1.990590e+02 	1.212331e+09 	1.621350e+03 	5.735175e+38 	
1.367596e+06 	1.972135e+02 	1.209095e+09 	1.631682e+03 	5.727673e+38 	
1.369425e+06 	1.953850e+02 	1.205867e+09 	1.642078e+03 	5.720183e+38 	
1.371257e+06 	1.935735e+02 	1.202647e+09 	1.652536e+03 	5.712707e+38 	
1.373093e+06 	1.917788e+02 	1.199436e+09 	1.663059e+03 	5.705243e+38 	
1.374934e+06 	1.900007e+02 	1.196232e+09 	1.673645e+03 	5.697793e+38 	
1.376778e+06 	1.882392e+02 	1.193037e+09 	1.684296e+03 	5.690356e+38 	
1.378626e+06 	1.864939e+02 	1.189850e+09 	1.695012e+03 	5.682931e+38 	
1.380478e+06 	1.847649e+02 	1.186672e+09 	1.705793e+03 	5.675520e+38 	
1.382334e+06 	1.830518e+02 	1.183501e+09 	1.716639e+03 	5.668122e+38 	
1.384194e+06 	1.813547e+02 	1.180338e+09 	1.727551e+03 	5.660737e+38 	
1.386058e+06 	1.796733e+02 	1.177184e+09 	1.738529e+03 	5.653365e+38 	
1.387926e+06 	1.780074e+02 	1.174038e+09 	1.749574e+03 	5.646006e+38 	
1.389798e+06 	1.763571e+02 	1.170900e+09 	1.760686e+03 	5.638660e+38 	
1.391673e+06 	1.747220e+02 	1.167770e+09 	1.771866e+03 	5.631327e+38 	
1.393553e+06 	1.731020e+02 	1.164648e+09 	1.783113e+03 	5.624007e+38 	
1.395437e+06 	1.714971e+02 	1.161534e+09 	1.794429e+03 	5.616699e+38 	
1.397325e+06 	1.699071e+02 	1.158428e+09 	1.805813e+03 	5.609405e+38 	
1.399217e+06 	1.683318e+02 	1.155330e+09 	1.817267e+03 	5.602123e+38 	
1.401112e+06 	1.667712e+02 	1.152239e+09 	1.828789e+03 	5.594855e+38 	
1.403012e+06 	1.652250e+02 	1.149157e+09 	1.840382e+03 	5.587599e+38 	
1.404916e+06 	1.636931e+02 	1.146083e+09 	1.852044e+03 	5.580357e+38 	
1.406824e+06 	1.621754e+02 	1.143017e+09 	1.863778e+03 	5.573127e+38 	
1.408736e+06 	1.606718e+02 	1.139958e+09 	1.875582e+03 	5.565910e+38 	
1.410652e+06 	1.591822e+02 	1.136908e+09 	1.887458e+03 	5.558705e+38 	
1.412573e+06 	1.577063e+02 	1.133865e+09 	1.899406e+03 	5.551513e+38 	
1.414497e+06 	1.562442e+02 	1.130830e+09 	1.911426e+03 	5.544334e+38 	
1.416425e+06 	1.547956e+02 	1.127803e+09 	1.923519e+03 	5.537168e+38 	
1.418358e+06 	1.533604e+02 	1.124784e+09 	1.935684e+03 	5.530015e+38 	
1.420295e+06 	1.519385e+02 	1.121772e+09 	1.947924e+03 	5.522874e+38 	
1.422235e+06 	1.505298e+02 	1.118769e+09 	1.960237e+03 	5.515747e+38 	
1.424180e+06 	1.491342e+02 	1.115773e+09 	1.972625e+03 	5.508632e+38 	
1.426129e+06 	1.477515e+02 	1.112784e+09 	1.985087e+03 	5.501529e+38 	
1.428082e+06 	1.463816e+02 	1.109804e+09 	1.997625e+03 	5.494439e+38 	
1.430040e+06 	1.450245e+02 	1.106831e+09 	2.010238e+03 	5.487362e+38 	
1.432001e+06 	1.436799e+02 	1.103866e+09 	2.022928e+03 	5.480297e+38 	
1.433967e+06 	1.423478e+02 	1.100908e+09 	2.035694e+03 	5.473245e+38 	
1.435937e+06 	1.410280e+02 	1.097958e+09 	2.048537e+03 	5.466205e+38 	
1.437911e+06 	1.397205e+02 	1.095016e+09 	2.061457e+03 	5.459178e+38 	
1.439889e+06 	1.384251e+02 	1.092081e+09 	2.074455e+03 	5.452164e+38 	
1.441872e+06 	1.371417e+02 	1.089154e+09 	2.087532e+03 	5.445163e+38 	
1.443858e+06 	1.358702e+02 	1.086234e+09 	2.100688e+03 	5.438173e+38 	
1.445849e+06 	1.346105e+02 	1.083322e+09 	2.113922e+03 	5.431197e+38 	
1.447845e+06 	1.333624e+02 	1.080417e+09 	2.127237e+03 	5.424232e+38 	
1.449844e+06 	1.321260e+02 	1.077520e+09 	2.140631e+03 	5.417280e+38 	
1.451848e+06 	1.309010e+02 	1.074631e+09 	2.154106e+03 	5.410341e+38 	
1.453856e+06 	1.296873e+02 	1.071748e+09 	2.167662e+03 	5.403414e+38 	
1.455868e+06 	1.284850e+02 	1.068874e+09 	2.181300e+03 	5.396499e+38 	
1.457885e+06 	1.272937e+02 	1.066006e+09 	2.195019e+03 	5.389597e+38 	
1.459906e+06 	1.261135e+02 	1.063146e+09 	2.208821e+03 	5.382708e+38 	
1.461931e+06 	1.249443e+02 	1.060294e+09 	2.222707e+03 	5.375831e+38 	
1.463960e+06 	1.237859e+02 	1.057449e+09 	2.236675e+03 	5.368966e+38 	
1.465994e+06 	1.226382e+02 	1.054611e+09 	2.250728e+03 	5.362113e+38 	
1.468032e+06 	1.215012e+02 	1.051781e+09 	2.264864e+03 	5.355272e+38 	
1.470075e+06 	1.203747e+02 	1.048958e+09 	2.279086e+03 	5.348444e+38 	
1.472121e+06 	1.192586e+02 	1.046142e+09 	2.293393e+03 	5.341628e+38 	
1.474173e+06 	1.181529e+02 	1.043333e+09 	2.307785e+03 	5.334825e+38 	
1.476228e+06 	1.170575e+02 	1.040532e+09 	2.322264e+03 	5.328034e+38 	
1.478288e+06 	1.159722e+02 	1.037738e+09 	2.336830e+03 	5.321255e+38 	
1.480353e+06 	1.148970e+02 	1.034951e+09 	2.351483e+03 	5.314489e+38 	
1.482421e+06 	1.138317e+02 	1.032171e+09 	2.366224e+03 	5.307734e+38 	
1.484495e+06 	1.127763e+02 	1.029399e+09 	2.381053e+03 	5.300992e+38 	
1.486572e+06 	1.117307e+02 	1.026634e+09 	2.395972e+03 	5.294262e+38 	
1.488654e+06 	1.106948e+02 	1.023876e+09 	2.410979e+03 	5.287544e+38 	
1.490741e+06 	1.096685e+02 	1.021125e+09 	2.426076e+03 	5.280838e+38 	
1.492832e+06 	1.086517e+02 	1.018381e+09 	2.441263e+03 	5.274144e+38 	
1.494927e+06 	1.076444e+02 	1.015644e+09 	2.456542e+03 	5.267463e+38 	
1.497027e+06 	1.066464e+02 	1.012915e+09 	2.471911e+03 	5.260794e+38 	
1.499131e+06 	1.056576e+02 	1.010192e+09 	2.487373e+03 	5.254136e+38 	
1.501240e+06 	1.046780e+02 	1.007477e+09 	2.502927e+03 	5.247491e+38 	
1.503354e+06 	1.037075e+02 	1.004768e+09 	2.518575e+03 	5.240858e+38 	
1.505471e+06 	1.027460e+02 	1.002067e+09 	2.534315e+03 	5.234236e+38 	
1.507594e+06 	1.017934e+02 	9.993727e+08 	2.550150e+03 	5.227627e+38 	
1.509721e+06 	1.008496e+02 	9.966853e+08 	2.566079e+03 	5.221030e+38 	
1.511852e+06 	9.991459e+01 	9.940048e+08 	2.582102e+03 	5.214445e+38 	
1.513988e+06 	9.898824e+01 	9.913313e+08 	2.598222e+03 	5.207872e+38 	
1.516129e+06 	9.807048e+01 	9.886648e+08 	2.614438e+03 	5.201311e+38 	
1.518274e+06 	9.716122e+01 	9.860051e+08 	2.630751e+03 	5.194761e+38 	
1.520424e+06 	9.626040e+01 	9.833524e+08 	2.647161e+03 	5.188224e+38 	
1.522578e+06 	9.536793e+01 	9.807066e+08 	2.663669e+03 	5.181698e+38 	
1.524737e+06 	9.448373e+01 	9.780677e+08 	2.680275e+03 	5.175185e+38 	
1.526900e+06 	9.360774e+01 	9.754355e+08 	2.696980e+03 	5.168683e+38 	
1.529069e+06 	9.273986e+01 	9.728102e+08 	2.713784e+03 	5.162193e+38 	
1.531241e+06 	9.188003e+01 	9.701918e+08 	2.730689e+03 	5.155715e+38 	
1.533419e+06 	9.102817e+01 	9.675801e+08 	2.747694e+03 	5.149249e+38 	
1.535601e+06 	9.018421e+01 	9.649752e+08 	2.764800e+03 	5.142795e+38 	
1.537788e+06 	8.934807e+01 	9.623771e+08 	2.782009e+03 	5.136352e+38 	
1.539979e+06 	8.851969e+01 	9.597857e+08 	2.799319e+03 	5.129921e+38 	
1.542175e+06 	8.769899e+01 	9.572011e+08 	2.816733e+03 	5.123502e+38 	
1.544376e+06 	8.688589e+01 	9.546233e+08 	2.834250e+03 	5.117095e+38 	
1.546581e+06 	8.608033e+01 	9.520521e+08 	2.851871e+03 	5.110699e+38 	
1.548792e+06 	8.528225e+01 	9.494875e+08 	2.869597e+03 	5.104315e+38 	
1.551007e+06 	8.449156e+01 	9.469297e+08 	2.887428e+03 	5.097943e+38 	
1.553226e+06 	8.370820e+01 	9.443785e+08 	2.905364e+03 	5.091583e+38 	
1.555451e+06 	8.293211e+01 	9.418339e+08 	2.923408e+03 	5.085234e+38 	
1.557680e+06 	8.216321e+01 	9.392960e+08 	2.941559e+03 	5.078897e+38 	
1.559914e+06 	8.140144e+01 	9.367647e+08 	2.959817e+03 	5.072571e+38 	
1.562152e+06 	8.064673e+01 	9.342399e+08 	2.978184e+03 	5.066257e+38 	
1.564396e+06 	7.989902e+01 	9.317218e+08 	2.996659e+03 	5.059955e+38 	
1.566644e+06 	7.915824e+01 	9.292102e+08 	3.015244e+03 	5.053664e+38 	
1.568897e+06 	7.842434e+01 	9.267051e+08 	3.033939e+03 	5.047385e+38 	
1.571155e+06 	7.769723e+01 	9.242065e+08 	3.052745e+03 	5.041117e+38 	
1.573418e+06 	7.697687e+01 	9.217145e+08 	3.071662e+03 	5.034861e+38 	
1.575686e+06 	7.626318e+01 	9.192289e+08 	3.090691e+03 	5.028617e+38 	
1.577958e+06 	7.555611e+01 	9.167499e+08 	3.109834e+03 	5.022384e+38 	
1.580235e+06 	7.485560e+01 	9.142773e+08 	3.129089e+03 	5.016162e+38 	
1.582517e+06 	7.416158e+01 	9.118111e+08 	3.148458e+03 	5.009952e+38 	
1.584804e+06 	7.347400e+01 	9.093514e+08 	3.167942e+03 	5.003753e+38 	
1.587096e+06 	7.279279e+01 	9.068981e+08 	3.187541e+03 	4.997566e+38 	
1.589393e+06 	7.211790e+01 	9.044511e+08 	3.207256e+03 	4.991390e+38 	
1.591695e+06 	7.144926e+01 	9.020106e+08 	3.227087e+03 	4.985226e+38 	
1.594002e+06 	7.078682e+01 	8.995764e+08 	3.247035e+03 	4.979073e+38 	
1.596314e+06 	7.013053e+01 	8.971485e+08 	3.267102e+03 	4.972932e+38 	
1.598630e+06 	6.948032e+01 	8.947270e+08 	3.287287e+03 	4.966801e+38 	
1.600952e+06 	6.883614e+01 	8.923119e+08 	3.307592e+03 	4.960683e+38 	
1.603278e+06 	6.819793e+01 	8.899030e+08 	3.328016e+03 	4.954575e+38 	
1.605610e+06 	6.756564e+01 	8.875004e+08 	3.348560e+03 	4.948479e+38 	
1.607946e+06 	6.693921e+01 	8.851041e+08 	3.369226e+03 	4.942393e+38 	
1.610288e+06 	6.631859e+01 	8.827140e+08 	3.390014e+03 	4.936320e+38 	
1.612634e+06 	6.570372e+01 	8.803302e+08 	3.410924e+03 	4.930257e+38 	
1.614986e+06 	6.509455e+01 	8.779526e+08 	3.431957e+03 	4.924207e+38 	
1.617342e+06 	6.449103e+01 	8.755812e+08 	3.453114e+03 	4.918167e+38 	
1.619704e+06 	6.389311e+01 	8.732160e+08 	3.474397e+03 	4.912138e+38 	
1.622071e+06 	6.330073e+01 	8.708570e+08 	3.495804e+03 	4.906121e+38 	
1.624442e+06 	6.271384e+01 	8.685041e+08 	3.517338e+03 	4.900114e+38 	
1.626819e+06 	6.213239e+01 	8.661575e+08 	3.538998e+03 	4.894119e+38 	
1.629201e+06 	6.155634e+01 	8.638169e+08 	3.560786e+03 	4.888135e+38 	
1.631588e+06 	6.098562e+01 	8.614824e+08 	3.582702e+03 	4.882162e+38 	
1.633980e+06 	6.042020e+01 	8.591541e+08 	3.604746e+03 	4.876200e+38 	
1.636378e+06 	5.986002e+01 	8.568318e+08 	3.626920e+03 	4.870250e+38 	
1.638780e+06 	5.930503e+01 	8.545156e+08 	3.649225e+03 	4.864311e+38 	
1.641187e+06 	5.875519e+01 	8.522055e+08 	3.671662e+03 	4.858382e+38 	
1.643600e+06 	5.821045e+01 	8.499014e+08 	3.694229e+03 	4.852465e+38 	
1.646018e+06 	5.767075e+01 	8.476033e+08 	3.716930e+03 	4.846558e+38 	
1.648441e+06 	5.713606e+01 	8.453113e+08 	3.739764e+03 	4.840663e+38 	
1.650869e+06 	5.660633e+01 	8.430253e+08 	3.762731e+03 	4.834779e+38 	
1.653303e+06 	5.608151e+01 	8.407452e+08 	3.785834e+03 	4.828905e+38 	
1.655742e+06 	5.556155e+01 	8.384711e+08 	3.809071e+03 	4.823043e+38 	
1.658186e+06 	5.504642e+01 	8.362029e+08 	3.832445e+03 	4.817192e+38 	
1.660635e+06 	5.453606e+01 	8.339407e+08 	3.855957e+03 	4.811352e+38 	
1.663089e+06 	5.403043e+01 	8.316845e+08 	3.879607e+03 	4.805522e+38 	
1.665549e+06 	5.352949e+01 	8.294341e+08 	3.903395e+03 	4.799704e+38 	
1.668014e+06 	5.303320e+01 	8.271896e+08 	3.927322e+03 	4.793896e+38 	
1.670484e+06 	5.254150e+01 	8.249510e+08 	3.951390e+03 	4.788099e+38 	
1.672960e+06 	5.205437e+01 	8.227183e+08 	3.975598e+03 	4.782313e+38 	
1.675440e+06 	5.157175e+01 	8.204914e+08 	3.999948e+03 	4.776538e+38 	
1.677927e+06 	5.109361e+01 	8.182704e+08 	4.024441e+03 	4.770774e+38 	
1.680418e+06 	5.061990e+01 	8.160551e+08 	4.049077e+03 	4.765021e+38 	
1.682915e+06 	5.015058e+01 	8.138457e+08 	4.073857e+03 	4.759278e+38 	
1.685417e+06 	4.968561e+01 	8.116421e+08 	4.098783e+03 	4.753547e+38 	
1.687925e+06 	4.922496e+01 	8.094443e+08 	4.123854e+03 	4.747826e+38 	
1.690438e+06 	4.876857e+01 	8.072522e+08 	4.149072e+03 	4.742115e+38 	
1.692956e+06 	4.831642e+01 	8.050659e+08 	4.174437e+03 	4.736416e+38 	
1.695480e+06 	4.786845e+01 	8.028853e+08 	4.199950e+03 	4.730727e+38 	
1.698009e+06 	4.742465e+01 	8.007104e+08 	4.225612e+03 	4.725049e+38 	
1.700544e+06 	4.698495e+01 	7.985412e+08 	4.251423e+03 	4.719382e+38 	
1.703084e+06 	4.654933e+01 	7.963778e+08 	4.277386e+03 	4.713725e+38 	
1.705630e+06 	4.611776e+01 	7.942200e+08 	4.303500e+03 	4.708079e+38 	
1.708181e+06 	4.569018e+01 	7.920678e+08 	4.329767e+03 	4.702444e+38 	
1.710737e+06 	4.526657e+01 	7.899214e+08 	4.356187e+03 	4.696819e+38 	
1.713299e+06 	4.484688e+01 	7.877805e+08 	4.382761e+03 	4.691205e+38 	
1.715866e+06 	4.443109e+01 	7.856453e+08 	4.409490e+03 	4.685602e+38 	
1.718439e+06 	4.401915e+01 	7.835157e+08 	4.436375e+03 	4.680009e+38 	
1.721018e+06 	4.361103e+01 	7.813917e+08 	4.463416e+03 	4.674426e+38 	
1.723602e+06 	4.320669e+01 	7.792732e+08 	4.490614e+03 	4.668855e+38 	
1.726192e+06 	4.280610e+01 	7.771604e+08 	4.517971e+03 	4.663294e+38 	
1.728787e+06 	4.240923e+01 	7.750530e+08 	4.545488e+03 	4.657743e+38 	
1.731388e+06 	4.201603e+01 	7.729513e+08 	4.573165e+03 	4.652203e+38 	
1.733994e+06 	4.162649e+01 	7.708550e+08 	4.601003e+03 	4.646674e+38 	
1.736606e+06 	4.124055e+01 	7.687643e+08 	4.629003e+03 	4.641154e+38 	
1.739224e+06 	4.085819e+01 	7.666790e+08 	4.657166e+03 	4.635645e+38 	
1.741847e+06 	4.047938e+01 	7.645993e+08 	4.685493e+03 	4.630147e+38 	
1.744476e+06 	4.010408e+01 	7.625250e+08 	4.713983e+03 	4.624659e+38 	
1.747110e+06 	3.973225e+01 	7.604561e+08 	4.742640e+03 	4.619182e+38 	
1.749750e+06 	3.936388e+01 	7.583927e+08 	4.771463e+03 	4.613715e+38 	
1.752396e+06 	3.899892e+01 	7.563347e+08 	4.800454e+03 	4.608259e+38 	
1.755048e+06 	3.863734e+01 	7.542822e+08 	4.829613e+03 	4.602813e+38 	
1.757705e+06 	3.827912e+01 	7.522350e+08 	4.858942e+03 	4.597377e+38 	
1.760368e+06 	3.792422e+01 	7.501933e+08 	4.888440e+03 	4.591951e+38 	
