r (cm)      	rho (g/cm3) 	T (K)       	u (cm/s)    	L* (erg/s)  			 Edot= 3.938202e+39
1.300142e+06 	6.050872e+03 	1.694544e+09 	4.202640e+01 	1.414467e+39 	
1.300192e+06 	5.994290e+03 	1.692869e+09 	4.241916e+01 	1.414204e+39 	
1.300242e+06 	5.938236e+03 	1.691196e+09 	4.281557e+01 	1.413940e+39 	
1.300292e+06 	5.882707e+03 	1.689525e+09 	4.321568e+01 	1.413675e+39 	
1.300343e+06 	5.827698e+03 	1.687857e+09 	4.361950e+01 	1.413408e+39 	
1.300393e+06 	5.773202e+03 	1.686192e+09 	4.402708e+01 	1.413140e+39 	
1.300444e+06 	5.719217e+03 	1.684529e+09 	4.443845e+01 	1.412870e+39 	
1.300496e+06 	5.665736e+03 	1.682868e+09 	4.485364e+01 	1.412599e+39 	
1.300547e+06 	5.612755e+03 	1.681210e+09 	4.527269e+01 	1.412326e+39 	
1.300599e+06 	5.560269e+03 	1.679554e+09 	4.569563e+01 	1.412051e+39 	
1.300651e+06 	5.508275e+03 	1.677900e+09 	4.612251e+01 	1.411775e+39 	
1.300703e+06 	5.456766e+03 	1.676248e+09 	4.655335e+01 	1.411498e+39 	
1.300756e+06 	5.405740e+03 	1.674599e+09 	4.698820e+01 	1.411219e+39 	
1.300808e+06 	5.355190e+03 	1.672952e+09 	4.742709e+01 	1.410938e+39 	
1.300861e+06 	5.305113e+03 	1.671307e+09 	4.787005e+01 	1.410656e+39 	
1.300915e+06 	5.255505e+03 	1.669665e+09 	4.831713e+01 	1.410372e+39 	
1.300968e+06 	5.206360e+03 	1.668025e+09 	4.876836e+01 	1.410087e+39 	
1.301022e+06 	5.157675e+03 	1.666386e+09 	4.922379e+01 	1.409800e+39 	
1.301076e+06 	5.109445e+03 	1.664750e+09 	4.968344e+01 	1.409511e+39 	
1.301130e+06 	5.061666e+03 	1.663116e+09 	5.014736e+01 	1.409221e+39 	
1.301184e+06 	5.014334e+03 	1.661484e+09 	5.061559e+01 	1.408929e+39 	
1.301239e+06 	4.967444e+03 	1.659855e+09 	5.108817e+01 	1.408636e+39 	
1.301294e+06 	4.920993e+03 	1.658227e+09 	5.156513e+01 	1.408341e+39 	
1.301349e+06 	4.874976e+03 	1.656601e+09 	5.204652e+01 	1.408044e+39 	
1.301405e+06 	4.829390e+03 	1.654977e+09 	5.253238e+01 	1.407746e+39 	
1.301461e+06 	4.784230e+03 	1.653355e+09 	5.302275e+01 	1.407446e+39 	
1.301517e+06 	4.739492e+03 	1.651736e+09 	5.351767e+01 	1.407144e+39 	
1.301573e+06 	4.695173e+03 	1.650118e+09 	5.401718e+01 	1.406841e+39 	
1.301630e+06 	4.651268e+03 	1.648502e+09 	5.452133e+01 	1.406535e+39 	
1.301687e+06 	4.607773e+03 	1.646888e+09 	5.503015e+01 	1.406229e+39 	
1.301744e+06 	4.564686e+03 	1.645276e+09 	5.554370e+01 	1.405920e+39 	
1.301802e+06 	4.522001e+03 	1.643665e+09 	5.606200e+01 	1.405610e+39 	
1.301859e+06 	4.479715e+03 	1.642057e+09 	5.658511e+01 	1.405298e+39 	
1.301917e+06 	4.437825e+03 	1.640450e+09 	5.711308e+01 	1.404985e+39 	
1.301976e+06 	4.396326e+03 	1.638845e+09 	5.764594e+01 	1.404669e+39 	
1.302034e+06 	4.355216e+03 	1.637241e+09 	5.818373e+01 	1.404352e+39 	
1.302093e+06 	4.314490e+03 	1.635640e+09 	5.872652e+01 	1.404033e+39 	
1.302153e+06 	4.274145e+03 	1.634040e+09 	5.927433e+01 	1.403713e+39 	
1.302212e+06 	4.234177e+03 	1.632442e+09 	5.982723e+01 	1.403390e+39 	
1.302272e+06 	4.194583e+03 	1.630845e+09 	6.038525e+01 	1.403066e+39 	
1.302332e+06 	4.155359e+03 	1.629251e+09 	6.094843e+01 	1.402740e+39 	
1.302393e+06 	4.116501e+03 	1.627657e+09 	6.151684e+01 	1.402413e+39 	
1.302453e+06 	4.078008e+03 	1.626066e+09 	6.209051e+01 	1.402083e+39 	
1.302514e+06 	4.039874e+03 	1.624476e+09 	6.266950e+01 	1.401752e+39 	
1.302576e+06 	4.002097e+03 	1.622887e+09 	6.325384e+01 	1.401419e+39 	
1.302638e+06 	3.964673e+03 	1.621300e+09 	6.384360e+01 	1.401084e+39 	
1.302700e+06 	3.927599e+03 	1.619715e+09 	6.443882e+01 	1.400747e+39 	
1.302762e+06 	3.890871e+03 	1.618131e+09 	6.503955e+01 	1.400409e+39 	
1.302825e+06 	3.854487e+03 	1.616548e+09 	6.564584e+01 	1.400068e+39 	
1.302888e+06 	3.818444e+03 	1.614967e+09 	6.625774e+01 	1.399726e+39 	
1.302951e+06 	3.782737e+03 	1.613387e+09 	6.687531e+01 	1.399382e+39 	
1.303015e+06 	3.747364e+03 	1.611809e+09 	6.749859e+01 	1.399036e+39 	
1.303079e+06 	3.712322e+03 	1.610232e+09 	6.812764e+01 	1.398688e+39 	
1.303143e+06 	3.677608e+03 	1.608656e+09 	6.876251e+01 	1.398338e+39 	
1.303208e+06 	3.643218e+03 	1.607082e+09 	6.940325e+01 	1.397987e+39 	
1.303273e+06 	3.609150e+03 	1.605509e+09 	7.004992e+01 	1.397633e+39 	
1.303338e+06 	3.575401e+03 	1.603937e+09 	7.070257e+01 	1.397278e+39 	
1.303404e+06 	3.541967e+03 	1.602367e+09 	7.136125e+01 	1.396920e+39 	
1.303470e+06 	3.508846e+03 	1.600797e+09 	7.202602e+01 	1.396561e+39 	
1.303536e+06 	3.476034e+03 	1.599229e+09 	7.269694e+01 	1.396200e+39 	
1.303603e+06 	3.443529e+03 	1.597663e+09 	7.337406e+01 	1.395837e+39 	
1.303670e+06 	3.411329e+03 	1.596097e+09 	7.405744e+01 	1.395472e+39 	
1.303738e+06 	3.379429e+03 	1.594533e+09 	7.474713e+01 	1.395105e+39 	
1.303806e+06 	3.347828e+03 	1.592969e+09 	7.544319e+01 	1.394735e+39 	
1.303874e+06 	3.316522e+03 	1.591407e+09 	7.614569e+01 	1.394364e+39 	
1.303943e+06 	3.285509e+03 	1.589846e+09 	7.685467e+01 	1.393992e+39 	
1.304012e+06 	3.254785e+03 	1.588286e+09 	7.757020e+01 	1.393617e+39 	
1.304081e+06 	3.224350e+03 	1.586726e+09 	7.829234e+01 	1.393240e+39 	
1.304151e+06 	3.194198e+03 	1.585168e+09 	7.902114e+01 	1.392861e+39 	
1.304221e+06 	3.164329e+03 	1.583611e+09 	7.975668e+01 	1.392480e+39 	
1.304292e+06 	3.134739e+03 	1.582055e+09 	8.049900e+01 	1.392097e+39 	
1.304362e+06 	3.105426e+03 	1.580499e+09 	8.124817e+01 	1.391712e+39 	
1.304434e+06 	3.076387e+03 	1.578945e+09 	8.200426e+01 	1.391325e+39 	
1.304506e+06 	3.047619e+03 	1.577392e+09 	8.276733e+01 	1.390936e+39 	
1.304578e+06 	3.019121e+03 	1.575839e+09 	8.353743e+01 	1.390544e+39 	
1.304650e+06 	2.990889e+03 	1.574288e+09 	8.431463e+01 	1.390151e+39 	
1.304723e+06 	2.962921e+03 	1.572737e+09 	8.509900e+01 	1.389756e+39 	
1.304797e+06 	2.935214e+03 	1.571187e+09 	8.589061e+01 	1.389359e+39 	
1.304870e+06 	2.907767e+03 	1.569637e+09 	8.668951e+01 	1.388959e+39 	
1.304944e+06 	2.880576e+03 	1.568089e+09 	8.749577e+01 	1.388558e+39 	
1.305019e+06 	2.853639e+03 	1.566541e+09 	8.830947e+01 	1.388154e+39 	
1.305094e+06 	2.826955e+03 	1.564994e+09 	8.913066e+01 	1.387749e+39 	
1.305170e+06 	2.800519e+03 	1.563448e+09 	8.995942e+01 	1.387341e+39 	
1.305246e+06 	2.774331e+03 	1.561902e+09 	9.079582e+01 	1.386931e+39 	
1.305322e+06 	2.748388e+03 	1.560357e+09 	9.163992e+01 	1.386519e+39 	
1.305399e+06 	2.722688e+03 	1.558813e+09 	9.249179e+01 	1.386105e+39 	
1.305476e+06 	2.697228e+03 	1.557269e+09 	9.335150e+01 	1.385688e+39 	
1.305554e+06 	2.672006e+03 	1.555726e+09 	9.421913e+01 	1.385270e+39 	
1.305632e+06 	2.647020e+03 	1.554183e+09 	9.509474e+01 	1.384849e+39 	
1.305710e+06 	2.622267e+03 	1.552641e+09 	9.597841e+01 	1.384427e+39 	
1.305789e+06 	2.597746e+03 	1.551100e+09 	9.687021e+01 	1.384002e+39 	
1.305869e+06 	2.573454e+03 	1.549558e+09 	9.777022e+01 	1.383575e+39 	
1.305949e+06 	2.549390e+03 	1.548018e+09 	9.867850e+01 	1.383145e+39 	
1.306029e+06 	2.525550e+03 	1.546478e+09 	9.959514e+01 	1.382714e+39 	
1.306110e+06 	2.501933e+03 	1.544938e+09 	1.005202e+02 	1.382280e+39 	
1.306191e+06 	2.478538e+03 	1.543399e+09 	1.014538e+02 	1.381844e+39 	
1.306273e+06 	2.455361e+03 	1.541860e+09 	1.023959e+02 	1.381406e+39 	
1.306356e+06 	2.432400e+03 	1.540322e+09 	1.033467e+02 	1.380966e+39 	
1.306438e+06 	2.409655e+03 	1.538784e+09 	1.043063e+02 	1.380523e+39 	
1.306522e+06 	2.387122e+03 	1.537246e+09 	1.052746e+02 	1.380079e+39 	
1.306606e+06 	2.364800e+03 	1.535708e+09 	1.062519e+02 	1.379632e+39 	
1.306690e+06 	2.342686e+03 	1.534171e+09 	1.072381e+02 	1.379183e+39 	
1.306775e+06 	2.320779e+03 	1.532634e+09 	1.082334e+02 	1.378731e+39 	
1.306860e+06 	2.299078e+03 	1.531097e+09 	1.092378e+02 	1.378277e+39 	
1.306946e+06 	2.277579e+03 	1.529561e+09 	1.102514e+02 	1.377821e+39 	
1.307032e+06 	2.256281e+03 	1.528024e+09 	1.112743e+02 	1.377363e+39 	
1.307119e+06 	2.235182e+03 	1.526488e+09 	1.123067e+02 	1.376903e+39 	
1.307207e+06 	2.214281e+03 	1.524952e+09 	1.133484e+02 	1.376440e+39 	
1.307295e+06 	2.193575e+03 	1.523416e+09 	1.143998e+02 	1.375975e+39 	
1.307383e+06 	2.173062e+03 	1.521881e+09 	1.154608e+02 	1.375507e+39 	
1.307472e+06 	2.152742e+03 	1.520345e+09 	1.165315e+02 	1.375038e+39 	
1.307562e+06 	2.132611e+03 	1.518809e+09 	1.176120e+02 	1.374566e+39 	
1.307652e+06 	2.112669e+03 	1.517274e+09 	1.187024e+02 	1.374091e+39 	
1.307743e+06 	2.092913e+03 	1.515738e+09 	1.198028e+02 	1.373615e+39 	
1.307834e+06 	2.073342e+03 	1.514203e+09 	1.209133e+02 	1.373136e+39 	
1.307926e+06 	2.053954e+03 	1.512667e+09 	1.220339e+02 	1.372655e+39 	
1.308018e+06 	2.034748e+03 	1.511132e+09 	1.231648e+02 	1.372171e+39 	
1.308111e+06 	2.015721e+03 	1.509596e+09 	1.243061e+02 	1.371685e+39 	
1.308204e+06 	1.996871e+03 	1.508060e+09 	1.254578e+02 	1.371197e+39 	
1.308299e+06 	1.978198e+03 	1.506524e+09 	1.266200e+02 	1.370706e+39 	
1.308393e+06 	1.959700e+03 	1.504988e+09 	1.277929e+02 	1.370213e+39 	
1.308489e+06 	1.941375e+03 	1.503452e+09 	1.289765e+02 	1.369718e+39 	
1.308584e+06 	1.923221e+03 	1.501916e+09 	1.301709e+02 	1.369220e+39 	
1.308681e+06 	1.905237e+03 	1.500380e+09 	1.313762e+02 	1.368720e+39 	
1.308778e+06 	1.887420e+03 	1.498843e+09 	1.325926e+02 	1.368218e+39 	
1.308876e+06 	1.869771e+03 	1.497306e+09 	1.338200e+02 	1.367713e+39 	
1.308974e+06 	1.852287e+03 	1.495769e+09 	1.350587e+02 	1.367205e+39 	
1.309073e+06 	1.834966e+03 	1.494232e+09 	1.363087e+02 	1.366696e+39 	
1.309172e+06 	1.817807e+03 	1.492694e+09 	1.375701e+02 	1.366184e+39 	
1.309273e+06 	1.800808e+03 	1.491156e+09 	1.388430e+02 	1.365669e+39 	
1.309373e+06 	1.783969e+03 	1.489618e+09 	1.401275e+02 	1.365153e+39 	
1.309475e+06 	1.767287e+03 	1.488079e+09 	1.414238e+02 	1.364633e+39 	
1.309577e+06 	1.750761e+03 	1.486540e+09 	1.427318e+02 	1.364112e+39 	
1.309680e+06 	1.734389e+03 	1.485001e+09 	1.440518e+02 	1.363588e+39 	
1.309783e+06 	1.718171e+03 	1.483461e+09 	1.453839e+02 	1.363061e+39 	
1.309887e+06 	1.702104e+03 	1.481921e+09 	1.467280e+02 	1.362532e+39 	
1.309992e+06 	1.686187e+03 	1.480380e+09 	1.480845e+02 	1.362001e+39 	
1.310097e+06 	1.670420e+03 	1.478839e+09 	1.494532e+02 	1.361467e+39 	
1.310204e+06 	1.654799e+03 	1.477298e+09 	1.508345e+02 	1.360931e+39 	
1.310310e+06 	1.639325e+03 	1.475755e+09 	1.522283e+02 	1.360392e+39 	
1.310418e+06 	1.623996e+03 	1.474213e+09 	1.536348e+02 	1.359851e+39 	
1.310526e+06 	1.608810e+03 	1.472670e+09 	1.550541e+02 	1.359308e+39 	
1.310635e+06 	1.593765e+03 	1.471126e+09 	1.564863e+02 	1.358762e+39 	
1.310744e+06 	1.578862e+03 	1.469581e+09 	1.579316e+02 	1.358213e+39 	
1.310855e+06 	1.564098e+03 	1.468037e+09 	1.593900e+02 	1.357662e+39 	
1.310966e+06 	1.549472e+03 	1.466491e+09 	1.608616e+02 	1.357109e+39 	
1.311077e+06 	1.534983e+03 	1.464945e+09 	1.623467e+02 	1.356553e+39 	
1.311190e+06 	1.520629e+03 	1.463398e+09 	1.638452e+02 	1.355994e+39 	
1.311303e+06 	1.506409e+03 	1.461851e+09 	1.653573e+02 	1.355434e+39 	
1.311417e+06 	1.492323e+03 	1.460302e+09 	1.668832e+02 	1.354870e+39 	
1.311532e+06 	1.478368e+03 	1.458753e+09 	1.684229e+02 	1.354305e+39 	
1.311647e+06 	1.464544e+03 	1.457204e+09 	1.699766e+02 	1.353736e+39 	
1.311763e+06 	1.450848e+03 	1.455653e+09 	1.715444e+02 	1.353166e+39 	
1.311880e+06 	1.437281e+03 	1.454102e+09 	1.731264e+02 	1.352592e+39 	
1.311998e+06 	1.423841e+03 	1.452550e+09 	1.747227e+02 	1.352017e+39 	
1.312117e+06 	1.410527e+03 	1.450997e+09 	1.763335e+02 	1.351439e+39 	
1.312236e+06 	1.397337e+03 	1.449444e+09 	1.779590e+02 	1.350858e+39 	
1.312356e+06 	1.384270e+03 	1.447889e+09 	1.795991e+02 	1.350275e+39 	
1.312477e+06 	1.371326e+03 	1.446334e+09 	1.812541e+02 	1.349689e+39 	
1.312599e+06 	1.358502e+03 	1.444778e+09 	1.829241e+02 	1.349101e+39 	
1.312721e+06 	1.345799e+03 	1.443221e+09 	1.846092e+02 	1.348510e+39 	
1.312844e+06 	1.333214e+03 	1.441663e+09 	1.863096e+02 	1.347917e+39 	
1.312969e+06 	1.320747e+03 	1.440104e+09 	1.880253e+02 	1.347321e+39 	
1.313094e+06 	1.308397e+03 	1.438544e+09 	1.897566e+02 	1.346723e+39 	
1.313219e+06 	1.296162e+03 	1.436983e+09 	1.915035e+02 	1.346122e+39 	
1.313346e+06 	1.284041e+03 	1.435422e+09 	1.932662e+02 	1.345519e+39 	
1.313473e+06 	1.272034e+03 	1.433859e+09 	1.950448e+02 	1.344914e+39 	
1.313602e+06 	1.260139e+03 	1.432295e+09 	1.968395e+02 	1.344305e+39 	
1.313731e+06 	1.248355e+03 	1.430731e+09 	1.986504e+02 	1.343695e+39 	
1.313861e+06 	1.236682e+03 	1.429165e+09 	2.004777e+02 	1.343081e+39 	
1.313992e+06 	1.225118e+03 	1.427598e+09 	2.023214e+02 	1.342466e+39 	
1.314124e+06 	1.213661e+03 	1.426030e+09 	2.041818e+02 	1.341848e+39 	
1.314256e+06 	1.202312e+03 	1.424461e+09 	2.060589e+02 	1.341227e+39 	
1.314390e+06 	1.191069e+03 	1.422891e+09 	2.079530e+02 	1.340604e+39 	
1.314525e+06 	1.179932e+03 	1.421319e+09 	2.098641e+02 	1.339978e+39 	
1.314660e+06 	1.168898e+03 	1.419747e+09 	2.117925e+02 	1.339350e+39 	
1.314796e+06 	1.157968e+03 	1.418173e+09 	2.137382e+02 	1.338719e+39 	
1.314933e+06 	1.147139e+03 	1.416599e+09 	2.157015e+02 	1.338086e+39 	
1.315072e+06 	1.136412e+03 	1.415023e+09 	2.176824e+02 	1.337450e+39 	
1.315211e+06 	1.125786e+03 	1.413446e+09 	2.196811e+02 	1.336812e+39 	
1.315351e+06 	1.115258e+03 	1.411867e+09 	2.216978e+02 	1.336171e+39 	
1.315492e+06 	1.104829e+03 	1.410288e+09 	2.237327e+02 	1.335528e+39 	
1.315634e+06 	1.094498e+03 	1.408707e+09 	2.257858e+02 	1.334882e+39 	
1.315777e+06 	1.084263e+03 	1.407125e+09 	2.278574e+02 	1.334233e+39 	
1.315921e+06 	1.074124e+03 	1.405542e+09 	2.299476e+02 	1.333583e+39 	
1.316065e+06 	1.064080e+03 	1.403957e+09 	2.320565e+02 	1.332929e+39 	
1.316211e+06 	1.054130e+03 	1.402371e+09 	2.341844e+02 	1.332274e+39 	
1.316358e+06 	1.044272e+03 	1.400784e+09 	2.363314e+02 	1.331615e+39 	
1.316506e+06 	1.034507e+03 	1.399196e+09 	2.384977e+02 	1.330955e+39 	
1.316655e+06 	1.024833e+03 	1.397606e+09 	2.406833e+02 	1.330291e+39 	
1.316805e+06 	1.015250e+03 	1.396015e+09 	2.428886e+02 	1.329626e+39 	
1.316955e+06 	1.005756e+03 	1.394422e+09 	2.451136e+02 	1.328957e+39 	
1.317107e+06 	9.963515e+02 	1.392828e+09 	2.473585e+02 	1.328287e+39 	
1.317260e+06 	9.870346e+02 	1.391233e+09 	2.496235e+02 	1.327614e+39 	
1.317414e+06 	9.778047e+02 	1.389636e+09 	2.519088e+02 	1.326938e+39 	
1.317569e+06 	9.686612e+02 	1.388038e+09 	2.542145e+02 	1.326260e+39 	
1.317725e+06 	9.596031e+02 	1.386439e+09 	2.565409e+02 	1.325579e+39 	
1.317883e+06 	9.506298e+02 	1.384838e+09 	2.588880e+02 	1.324896e+39 	
1.318041e+06 	9.417404e+02 	1.383235e+09 	2.612562e+02 	1.324211e+39 	
1.318200e+06 	9.329341e+02 	1.381632e+09 	2.636455e+02 	1.323523e+39 	
1.318361e+06 	9.242101e+02 	1.380026e+09 	2.660561e+02 	1.322832e+39 	
1.318522e+06 	9.155677e+02 	1.378420e+09 	2.684882e+02 	1.322139e+39 	
1.318685e+06 	9.070062e+02 	1.376811e+09 	2.709420e+02 	1.321444e+39 	
1.318848e+06 	8.985247e+02 	1.375202e+09 	2.734177e+02 	1.320746e+39 	
1.319013e+06 	8.901225e+02 	1.373590e+09 	2.759155e+02 	1.320046e+39 	
1.319179e+06 	8.817989e+02 	1.371978e+09 	2.784355e+02 	1.319343e+39 	
1.319346e+06 	8.735531e+02 	1.370363e+09 	2.809780e+02 	1.318638e+39 	
1.319515e+06 	8.653844e+02 	1.368747e+09 	2.835432e+02 	1.317931e+39 	
1.319684e+06 	8.572921e+02 	1.367130e+09 	2.861311e+02 	1.317221e+39 	
1.319855e+06 	8.492755e+02 	1.365511e+09 	2.887421e+02 	1.316509e+39 	
1.320026e+06 	8.413338e+02 	1.363891e+09 	2.913763e+02 	1.315794e+39 	
1.320199e+06 	8.334664e+02 	1.362269e+09 	2.940339e+02 	1.315077e+39 	
1.320373e+06 	8.256726e+02 	1.360645e+09 	2.967152e+02 	1.314357e+39 	
1.320549e+06 	8.179517e+02 	1.359020e+09 	2.994202e+02 	1.313635e+39 	
1.320725e+06 	8.103029e+02 	1.357393e+09 	3.021493e+02 	1.312911e+39 	
1.320903e+06 	8.027257e+02 	1.355765e+09 	3.049025e+02 	1.312184e+39 	
1.321082e+06 	7.952193e+02 	1.354135e+09 	3.076802e+02 	1.311455e+39 	
1.321262e+06 	7.877832e+02 	1.352503e+09 	3.104826e+02 	1.310724e+39 	
1.321443e+06 	7.804165e+02 	1.350870e+09 	3.133098e+02 	1.309990e+39 	
1.321626e+06 	7.731188e+02 	1.349235e+09 	3.161620e+02 	1.309253e+39 	
1.321810e+06 	7.658893e+02 	1.347599e+09 	3.190395e+02 	1.308515e+39 	
1.321995e+06 	7.587274e+02 	1.345961e+09 	3.219425e+02 	1.307774e+39 	
1.322181e+06 	7.516324e+02 	1.344321e+09 	3.248711e+02 	1.307031e+39 	
1.322369e+06 	7.446038e+02 	1.342679e+09 	3.278256e+02 	1.306285e+39 	
1.322558e+06 	7.376410e+02 	1.341036e+09 	3.308063e+02 	1.305537e+39 	
1.322748e+06 	7.307432e+02 	1.339391e+09 	3.338133e+02 	1.304787e+39 	
1.322939e+06 	7.239100e+02 	1.337745e+09 	3.368469e+02 	1.304034e+39 	
1.323132e+06 	7.171406e+02 	1.336097e+09 	3.399072e+02 	1.303280e+39 	
1.323326e+06 	7.104346e+02 	1.334447e+09 	3.429945e+02 	1.302522e+39 	
1.323522e+06 	7.037912e+02 	1.332796e+09 	3.461091e+02 	1.301763e+39 	
1.323719e+06 	6.972100e+02 	1.331142e+09 	3.492512e+02 	1.301001e+39 	
1.323917e+06 	6.906903e+02 	1.329488e+09 	3.524209e+02 	1.300237e+39 	
1.324116e+06 	6.842316e+02 	1.327831e+09 	3.556186e+02 	1.299471e+39 	
1.324317e+06 	6.778333e+02 	1.326173e+09 	3.588444e+02 	1.298702e+39 	
1.324519e+06 	6.714948e+02 	1.324513e+09 	3.620986e+02 	1.297932e+39 	
1.324723e+06 	6.652156e+02 	1.322851e+09 	3.653815e+02 	1.297159e+39 	
1.324928e+06 	6.589951e+02 	1.321188e+09 	3.686931e+02 	1.296383e+39 	
1.325134e+06 	6.528328e+02 	1.319523e+09 	3.720339e+02 	1.295606e+39 	
1.325342e+06 	6.467281e+02 	1.317856e+09 	3.754041e+02 	1.294826e+39 	
1.325551e+06 	6.406805e+02 	1.316187e+09 	3.788038e+02 	1.294044e+39 	
1.325761e+06 	6.346894e+02 	1.314517e+09 	3.822334e+02 	1.293260e+39 	
1.325973e+06 	6.287544e+02 	1.312845e+09 	3.856931e+02 	1.292474e+39 	
1.326187e+06 	6.228748e+02 	1.311171e+09 	3.891831e+02 	1.291685e+39 	
1.326402e+06 	6.170503e+02 	1.309496e+09 	3.927037e+02 	1.290895e+39 	
1.326618e+06 	6.112802e+02 	1.307819e+09 	3.962551e+02 	1.290102e+39 	
1.326836e+06 	6.055640e+02 	1.306140e+09 	3.998377e+02 	1.289307e+39 	
1.327055e+06 	5.999014e+02 	1.304459e+09 	4.034515e+02 	1.288510e+39 	
1.327276e+06 	5.942916e+02 	1.302777e+09 	4.070970e+02 	1.287710e+39 	
1.327498e+06 	5.887343e+02 	1.301093e+09 	4.107743e+02 	1.286909e+39 	
1.327721e+06 	5.832290e+02 	1.299407e+09 	4.144838e+02 	1.286105e+39 	
1.327947e+06 	5.777752e+02 	1.297720e+09 	4.182257e+02 	1.285300e+39 	
1.328173e+06 	5.723724e+02 	1.296030e+09 	4.220003e+02 	1.284492e+39 	
1.328401e+06 	5.670201e+02 	1.294339e+09 	4.258078e+02 	1.283682e+39 	
1.328631e+06 	5.617178e+02 	1.292647e+09 	4.296485e+02 	1.282870e+39 	
1.328862e+06 	5.564651e+02 	1.290952e+09 	4.335227e+02 	1.282056e+39 	
1.329095e+06 	5.512616e+02 	1.289256e+09 	4.374307e+02 	1.281240e+39 	
1.329330e+06 	5.461067e+02 	1.287558e+09 	4.413726e+02 	1.280422e+39 	
1.329565e+06 	5.410000e+02 	1.285859e+09 	4.453489e+02 	1.279602e+39 	
1.329803e+06 	5.359410e+02 	1.284157e+09 	4.493598e+02 	1.278780e+39 	
1.330042e+06 	5.309294e+02 	1.282454e+09 	4.534055e+02 	1.277956e+39 	
1.330283e+06 	5.259646e+02 	1.280750e+09 	4.574864e+02 	1.277130e+39 	
1.330525e+06 	5.210463e+02 	1.279043e+09 	4.616028e+02 	1.276302e+39 	
1.330769e+06 	5.161739e+02 	1.277335e+09 	4.657549e+02 	1.275472e+39 	
1.331014e+06 	5.113471e+02 	1.275626e+09 	4.699431e+02 	1.274640e+39 	
1.331261e+06 	5.065655e+02 	1.273914e+09 	4.741676e+02 	1.273806e+39 	
1.331510e+06 	5.018285e+02 	1.272201e+09 	4.784286e+02 	1.272970e+39 	
1.331760e+06 	4.971359e+02 	1.270486e+09 	4.827266e+02 	1.272132e+39 	
1.332012e+06 	4.924871e+02 	1.268769e+09 	4.870619e+02 	1.271292e+39 	
1.332266e+06 	4.878818e+02 	1.267051e+09 	4.914346e+02 	1.270450e+39 	
1.332521e+06 	4.833196e+02 	1.265331e+09 	4.958452e+02 	1.269607e+39 	
1.332778e+06 	4.788000e+02 	1.263609e+09 	5.002939e+02 	1.268761e+39 	
1.333036e+06 	4.743227e+02 	1.261886e+09 	5.047810e+02 	1.267914e+39 	
1.333297e+06 	4.698873e+02 	1.260161e+09 	5.093070e+02 	1.267064e+39 	
1.333559e+06 	4.654933e+02 	1.258435e+09 	5.138720e+02 	1.266213e+39 	
1.333822e+06 	4.611405e+02 	1.256707e+09 	5.184764e+02 	1.265360e+39 	
1.334088e+06 	4.568283e+02 	1.254977e+09 	5.231205e+02 	1.264506e+39 	
1.334355e+06 	4.525564e+02 	1.253245e+09 	5.278046e+02 	1.263649e+39 	
1.334624e+06 	4.483245e+02 	1.251512e+09 	5.325291e+02 	1.262791e+39 	
1.334894e+06 	4.441322e+02 	1.249777e+09 	5.372942e+02 	1.261930e+39 	
1.335167e+06 	4.399791e+02 	1.248041e+09 	5.421004e+02 	1.261068e+39 	
