r (cm)      	rho (g/cm3) 	T (K)       	u (cm/s)    	L* (erg/s)  			 Edot= 8.106985e+38
1.200027e+06 	7.760081e+04 	1.239926e+09 	4.183510e-01 	3.490110e+38 	
1.200040e+06 	7.680716e+04 	1.236836e+09 	4.226642e-01 	3.490104e+38 	
1.200052e+06 	7.602163e+04 	1.233755e+09 	4.270218e-01 	3.490099e+38 	
1.200065e+06 	7.524413e+04 	1.230682e+09 	4.314244e-01 	3.490093e+38 	
1.200077e+06 	7.447458e+04 	1.227617e+09 	4.358725e-01 	3.490087e+38 	
1.200090e+06 	7.371291e+04 	1.224561e+09 	4.403664e-01 	3.490082e+38 	
1.200102e+06 	7.295902e+04 	1.221513e+09 	4.449066e-01 	3.490076e+38 	
1.200114e+06 	7.221284e+04 	1.218473e+09 	4.494937e-01 	3.490070e+38 	
1.200127e+06 	7.147429e+04 	1.215441e+09 	4.541281e-01 	3.490065e+38 	
1.200139e+06 	7.074330e+04 	1.212418e+09 	4.588102e-01 	3.490059e+38 	
1.200152e+06 	7.001979e+04 	1.209403e+09 	4.635407e-01 	3.490053e+38 	
1.200164e+06 	6.930367e+04 	1.206396e+09 	4.683199e-01 	3.490047e+38 	
1.200176e+06 	6.859488e+04 	1.203397e+09 	4.731485e-01 	3.490042e+38 	
1.200188e+06 	6.789333e+04 	1.200406e+09 	4.780268e-01 	3.490036e+38 	
1.200201e+06 	6.719896e+04 	1.197423e+09 	4.829554e-01 	3.490030e+38 	
1.200213e+06 	6.651170e+04 	1.194448e+09 	4.879349e-01 	3.490025e+38 	
1.200225e+06 	6.583146e+04 	1.191481e+09 	4.929658e-01 	3.490019e+38 	
1.200238e+06 	6.515818e+04 	1.188523e+09 	4.980485e-01 	3.490013e+38 	
1.200250e+06 	6.449178e+04 	1.185572e+09 	5.031836e-01 	3.490008e+38 	
1.200262e+06 	6.383220e+04 	1.182629e+09 	5.083717e-01 	3.490002e+38 	
1.200274e+06 	6.317937e+04 	1.179695e+09 	5.136133e-01 	3.489996e+38 	
1.200286e+06 	6.253321e+04 	1.176768e+09 	5.189090e-01 	3.489991e+38 	
1.200299e+06 	6.189366e+04 	1.173849e+09 	5.242593e-01 	3.489985e+38 	
1.200311e+06 	6.126065e+04 	1.170938e+09 	5.296647e-01 	3.489979e+38 	
1.200323e+06 	6.063412e+04 	1.168034e+09 	5.351260e-01 	3.489973e+38 	
1.200335e+06 	6.001399e+04 	1.165139e+09 	5.406435e-01 	3.489968e+38 	
1.200347e+06 	5.940021e+04 	1.162251e+09 	5.462179e-01 	3.489962e+38 	
1.200359e+06 	5.879270e+04 	1.159372e+09 	5.518499e-01 	3.489956e+38 	
1.200371e+06 	5.819141e+04 	1.156500e+09 	5.575399e-01 	3.489951e+38 	
1.200383e+06 	5.759626e+04 	1.153636e+09 	5.632886e-01 	3.489945e+38 	
1.200395e+06 	5.700721e+04 	1.150779e+09 	5.690966e-01 	3.489939e+38 	
1.200407e+06 	5.642417e+04 	1.147930e+09 	5.749645e-01 	3.489934e+38 	
1.200419e+06 	5.584710e+04 	1.145089e+09 	5.808929e-01 	3.489928e+38 	
1.200431e+06 	5.527594e+04 	1.142256e+09 	5.868825e-01 	3.489922e+38 	
1.200443e+06 	5.471061e+04 	1.139430e+09 	5.929338e-01 	3.489917e+38 	
1.200455e+06 	5.415107e+04 	1.136612e+09 	5.990476e-01 	3.489911e+38 	
1.200467e+06 	5.359724e+04 	1.133801e+09 	6.052244e-01 	3.489905e+38 	
1.200479e+06 	5.304909e+04 	1.130998e+09 	6.114649e-01 	3.489900e+38 	
1.200491e+06 	5.250653e+04 	1.128203e+09 	6.177698e-01 	3.489894e+38 	
1.200503e+06 	5.196953e+04 	1.125415e+09 	6.241397e-01 	3.489888e+38 	
1.200515e+06 	5.143802e+04 	1.122635e+09 	6.305753e-01 	3.489882e+38 	
1.200527e+06 	5.091195e+04 	1.119862e+09 	6.370773e-01 	3.489877e+38 	
1.200538e+06 	5.039125e+04 	1.117097e+09 	6.436464e-01 	3.489871e+38 	
1.200550e+06 	4.987588e+04 	1.114339e+09 	6.502832e-01 	3.489865e+38 	
1.200562e+06 	4.936578e+04 	1.111589e+09 	6.569884e-01 	3.489860e+38 	
1.200574e+06 	4.886090e+04 	1.108846e+09 	6.637628e-01 	3.489854e+38 	
1.200586e+06 	4.836119e+04 	1.106110e+09 	6.706071e-01 	3.489848e+38 	
1.200597e+06 	4.786658e+04 	1.103382e+09 	6.775220e-01 	3.489843e+38 	
1.200609e+06 	4.737703e+04 	1.100661e+09 	6.845082e-01 	3.489837e+38 	
1.200621e+06 	4.689249e+04 	1.097948e+09 	6.915664e-01 	3.489831e+38 	
1.200633e+06 	4.641290e+04 	1.095242e+09 	6.986974e-01 	3.489826e+38 	
1.200644e+06 	4.593822e+04 	1.092543e+09 	7.059020e-01 	3.489820e+38 	
1.200656e+06 	4.546840e+04 	1.089851e+09 	7.131809e-01 	3.489814e+38 	
1.200668e+06 	4.500338e+04 	1.087167e+09 	7.205349e-01 	3.489809e+38 	
1.200679e+06 	4.454311e+04 	1.084490e+09 	7.279648e-01 	3.489803e+38 	
1.200691e+06 	4.408755e+04 	1.081820e+09 	7.354712e-01 	3.489797e+38 	
1.200703e+06 	4.363665e+04 	1.079157e+09 	7.430551e-01 	3.489791e+38 	
1.200714e+06 	4.319037e+04 	1.076502e+09 	7.507172e-01 	3.489786e+38 	
1.200726e+06 	4.274864e+04 	1.073854e+09 	7.584584e-01 	3.489780e+38 	
1.200738e+06 	4.231144e+04 	1.071213e+09 	7.662793e-01 	3.489774e+38 	
1.200749e+06 	4.187870e+04 	1.068579e+09 	7.741810e-01 	3.489769e+38 	
1.200761e+06 	4.145040e+04 	1.065952e+09 	7.821641e-01 	3.489763e+38 	
1.200772e+06 	4.102647e+04 	1.063332e+09 	7.902296e-01 	3.489757e+38 	
1.200784e+06 	4.060688e+04 	1.060719e+09 	7.983783e-01 	3.489752e+38 	
1.200795e+06 	4.019158e+04 	1.058114e+09 	8.066110e-01 	3.489746e+38 	
1.200807e+06 	3.978052e+04 	1.055515e+09 	8.149287e-01 	3.489740e+38 	
1.200818e+06 	3.937367e+04 	1.052924e+09 	8.233321e-01 	3.489735e+38 	
1.200830e+06 	3.897098e+04 	1.050339e+09 	8.318222e-01 	3.489729e+38 	
1.200841e+06 	3.857241e+04 	1.047762e+09 	8.403999e-01 	3.489723e+38 	
1.200853e+06 	3.817792e+04 	1.045191e+09 	8.490660e-01 	3.489718e+38 	
1.200864e+06 	3.778746e+04 	1.042627e+09 	8.578216e-01 	3.489712e+38 	
1.200876e+06 	3.740100e+04 	1.040070e+09 	8.666674e-01 	3.489706e+38 	
1.200887e+06 	3.701848e+04 	1.037520e+09 	8.756045e-01 	3.489700e+38 	
1.200899e+06 	3.663988e+04 	1.034977e+09 	8.846338e-01 	3.489695e+38 	
1.200910e+06 	3.626515e+04 	1.032441e+09 	8.937562e-01 	3.489689e+38 	
1.200921e+06 	3.589426e+04 	1.029912e+09 	9.029727e-01 	3.489683e+38 	
1.200933e+06 	3.552715e+04 	1.027390e+09 	9.122842e-01 	3.489678e+38 	
1.200944e+06 	3.516381e+04 	1.024874e+09 	9.216918e-01 	3.489672e+38 	
1.200955e+06 	3.480417e+04 	1.022365e+09 	9.311965e-01 	3.489666e+38 	
1.200967e+06 	3.444822e+04 	1.019863e+09 	9.407991e-01 	3.489661e+38 	
1.200978e+06 	3.409590e+04 	1.017368e+09 	9.505009e-01 	3.489655e+38 	
1.200989e+06 	3.374719e+04 	1.014879e+09 	9.603026e-01 	3.489649e+38 	
1.201001e+06 	3.340205e+04 	1.012397e+09 	9.702055e-01 	3.489643e+38 	
1.201012e+06 	3.306044e+04 	1.009922e+09 	9.802106e-01 	3.489638e+38 	
1.201023e+06 	3.272231e+04 	1.007454e+09 	9.903188e-01 	3.489632e+38 	
1.201034e+06 	3.238765e+04 	1.004992e+09 	1.000531e+00 	3.489626e+38 	
1.201046e+06 	3.205641e+04 	1.002537e+09 	1.010849e+00 	3.489621e+38 	
1.201057e+06 	3.172856e+04 	1.000088e+09 	1.021273e+00 	3.489615e+38 	
1.201068e+06 	3.140406e+04 	9.976463e+08 	1.031805e+00 	3.489609e+38 	
1.201079e+06 	3.108288e+04 	9.952110e+08 	1.042446e+00 	3.489604e+38 	
1.201091e+06 	3.076499e+04 	9.927822e+08 	1.053196e+00 	3.489598e+38 	
1.201102e+06 	3.045034e+04 	9.903600e+08 	1.064057e+00 	3.489592e+38 	
1.201113e+06 	3.013891e+04 	9.879442e+08 	1.075030e+00 	3.489586e+38 	
1.201124e+06 	2.983067e+04 	9.855351e+08 	1.086116e+00 	3.489581e+38 	
1.201135e+06 	2.952558e+04 	9.831325e+08 	1.097317e+00 	3.489575e+38 	
1.201146e+06 	2.922362e+04 	9.807364e+08 	1.108633e+00 	3.489569e+38 	
1.201157e+06 	2.892474e+04 	9.783468e+08 	1.120066e+00 	3.489564e+38 	
1.201168e+06 	2.862891e+04 	9.759636e+08 	1.131617e+00 	3.489558e+38 	
1.201180e+06 	2.833611e+04 	9.735869e+08 	1.143287e+00 	3.489552e+38 	
1.201191e+06 	2.804631e+04 	9.712165e+08 	1.155077e+00 	3.489546e+38 	
1.201202e+06 	2.775947e+04 	9.688526e+08 	1.166989e+00 	3.489541e+38 	
1.201213e+06 	2.747557e+04 	9.664950e+08 	1.179024e+00 	3.489535e+38 	
1.201224e+06 	2.719456e+04 	9.641438e+08 	1.191183e+00 	3.489529e+38 	
1.201235e+06 	2.691644e+04 	9.617989e+08 	1.203467e+00 	3.489523e+38 	
1.201246e+06 	2.664115e+04 	9.594605e+08 	1.215878e+00 	3.489518e+38 	
1.201257e+06 	2.636868e+04 	9.571283e+08 	1.228417e+00 	3.489512e+38 	
1.201268e+06 	2.609900e+04 	9.548025e+08 	1.241085e+00 	3.489506e+38 	
1.201279e+06 	2.583208e+04 	9.524829e+08 	1.253885e+00 	3.489501e+38 	
1.201290e+06 	2.556788e+04 	9.501696e+08 	1.266816e+00 	3.489495e+38 	
1.201301e+06 	2.530639e+04 	9.478626e+08 	1.279880e+00 	3.489489e+38 	
1.201312e+06 	2.504758e+04 	9.455617e+08 	1.293080e+00 	3.489483e+38 	
1.201323e+06 	2.479141e+04 	9.432670e+08 	1.306415e+00 	3.489478e+38 	
1.201334e+06 	2.453785e+04 	9.409786e+08 	1.319888e+00 	3.489472e+38 	
1.201345e+06 	2.428690e+04 	9.386963e+08 	1.333500e+00 	3.489466e+38 	
1.201355e+06 	2.403851e+04 	9.364203e+08 	1.347252e+00 	3.489460e+38 	
1.201366e+06 	2.379266e+04 	9.341505e+08 	1.361146e+00 	3.489455e+38 	
1.201377e+06 	2.354932e+04 	9.318867e+08 	1.375184e+00 	3.489449e+38 	
1.201388e+06 	2.330847e+04 	9.296291e+08 	1.389366e+00 	3.489443e+38 	
1.201399e+06 	2.307009e+04 	9.273775e+08 	1.403695e+00 	3.489437e+38 	
1.201410e+06 	2.283414e+04 	9.251321e+08 	1.418171e+00 	3.489432e+38 	
1.201421e+06 	2.260061e+04 	9.228927e+08 	1.432797e+00 	3.489426e+38 	
1.201431e+06 	2.236947e+04 	9.206593e+08 	1.447574e+00 	3.489420e+38 	
1.201442e+06 	2.214069e+04 	9.184320e+08 	1.462503e+00 	3.489414e+38 	
1.201453e+06 	2.191425e+04 	9.162107e+08 	1.477586e+00 	3.489409e+38 	
1.201464e+06 	2.169012e+04 	9.139955e+08 	1.492824e+00 	3.489403e+38 	
1.201475e+06 	2.146829e+04 	9.117863e+08 	1.508220e+00 	3.489397e+38 	
1.201485e+06 	2.124873e+04 	9.095830e+08 	1.523775e+00 	3.489391e+38 	
1.201496e+06 	2.103141e+04 	9.073857e+08 	1.539490e+00 	3.489386e+38 	
1.201507e+06 	2.081631e+04 	9.051943e+08 	1.555367e+00 	3.489380e+38 	
1.201518e+06 	2.060342e+04 	9.030088e+08 	1.571408e+00 	3.489374e+38 	
1.201528e+06 	2.039270e+04 	9.008292e+08 	1.587614e+00 	3.489368e+38 	
1.201539e+06 	2.018413e+04 	8.986555e+08 	1.603988e+00 	3.489362e+38 	
1.201550e+06 	1.997770e+04 	8.964877e+08 	1.620531e+00 	3.489357e+38 	
1.201560e+06 	1.977339e+04 	8.943258e+08 	1.637244e+00 	3.489351e+38 	
1.201571e+06 	1.957116e+04 	8.921698e+08 	1.654129e+00 	3.489345e+38 	
1.201582e+06 	1.937099e+04 	8.900196e+08 	1.671189e+00 	3.489339e+38 	
1.201592e+06 	1.917288e+04 	8.878752e+08 	1.688425e+00 	3.489334e+38 	
1.201603e+06 	1.897679e+04 	8.857366e+08 	1.705838e+00 	3.489328e+38 	
1.201614e+06 	1.878271e+04 	8.836038e+08 	1.723431e+00 	3.489322e+38 	
1.201624e+06 	1.859061e+04 	8.814767e+08 	1.741206e+00 	3.489316e+38 	
1.201635e+06 	1.840048e+04 	8.793554e+08 	1.759164e+00 	3.489310e+38 	
1.201646e+06 	1.821229e+04 	8.772398e+08 	1.777307e+00 	3.489305e+38 	
1.201656e+06 	1.802603e+04 	8.751299e+08 	1.795637e+00 	3.489299e+38 	
1.201667e+06 	1.784167e+04 	8.730259e+08 	1.814157e+00 	3.489293e+38 	
1.201677e+06 	1.765920e+04 	8.709275e+08 	1.832867e+00 	3.489287e+38 	
1.201688e+06 	1.747859e+04 	8.688348e+08 	1.851771e+00 	3.489281e+38 	
1.201698e+06 	1.729983e+04 	8.667478e+08 	1.870869e+00 	3.489275e+38 	
1.201709e+06 	1.712290e+04 	8.646664e+08 	1.890164e+00 	3.489270e+38 	
1.201720e+06 	1.694778e+04 	8.625906e+08 	1.909659e+00 	3.489264e+38 	
1.201730e+06 	1.677445e+04 	8.605204e+08 	1.929354e+00 	3.489258e+38 	
1.201741e+06 	1.660289e+04 	8.584559e+08 	1.949253e+00 	3.489252e+38 	
1.201751e+06 	1.643309e+04 	8.563969e+08 	1.969357e+00 	3.489246e+38 	
1.201762e+06 	1.626502e+04 	8.543435e+08 	1.989669e+00 	3.489240e+38 	
1.201772e+06 	1.609867e+04 	8.522957e+08 	2.010190e+00 	3.489235e+38 	
1.201783e+06 	1.593402e+04 	8.502535e+08 	2.030922e+00 	3.489229e+38 	
1.201793e+06 	1.577106e+04 	8.482168e+08 	2.051869e+00 	3.489223e+38 	
1.201804e+06 	1.560976e+04 	8.461856e+08 	2.073031e+00 	3.489217e+38 	
1.201814e+06 	1.545012e+04 	8.441599e+08 	2.094412e+00 	3.489211e+38 	
1.201824e+06 	1.529210e+04 	8.421397e+08 	2.116014e+00 	3.489205e+38 	
1.201835e+06 	1.513571e+04 	8.401249e+08 	2.137838e+00 	3.489200e+38 	
1.201845e+06 	1.498091e+04 	8.381156e+08 	2.159887e+00 	3.489194e+38 	
1.201856e+06 	1.482769e+04 	8.361118e+08 	2.182164e+00 	3.489188e+38 	
1.201866e+06 	1.467605e+04 	8.341133e+08 	2.204671e+00 	3.489182e+38 	
1.201877e+06 	1.452595e+04 	8.321204e+08 	2.227409e+00 	3.489176e+38 	
1.201887e+06 	1.437739e+04 	8.301329e+08 	2.250383e+00 	3.489170e+38 	
1.201897e+06 	1.423034e+04 	8.281507e+08 	2.273593e+00 	3.489164e+38 	
1.201908e+06 	1.408481e+04 	8.261740e+08 	2.297043e+00 	3.489158e+38 	
1.201918e+06 	1.394076e+04 	8.242025e+08 	2.320734e+00 	3.489153e+38 	
1.201928e+06 	1.379818e+04 	8.222364e+08 	2.344671e+00 	3.489147e+38 	
1.201939e+06 	1.365706e+04 	8.202756e+08 	2.368853e+00 	3.489141e+38 	
1.201949e+06 	1.351738e+04 	8.183202e+08 	2.393286e+00 	3.489135e+38 	
1.201959e+06 	1.337914e+04 	8.163700e+08 	2.417970e+00 	3.489129e+38 	
1.201970e+06 	1.324230e+04 	8.144252e+08 	2.442909e+00 	3.489123e+38 	
1.201980e+06 	1.310687e+04 	8.124857e+08 	2.468106e+00 	3.489117e+38 	
1.201990e+06 	1.297282e+04 	8.105514e+08 	2.493562e+00 	3.489111e+38 	
1.202001e+06 	1.284014e+04 	8.086224e+08 	2.519281e+00 	3.489105e+38 	
1.202011e+06 	1.270882e+04 	8.066986e+08 	2.545265e+00 	3.489099e+38 	
1.202021e+06 	1.257885e+04 	8.047800e+08 	2.571517e+00 	3.489094e+38 	
1.202031e+06 	1.245020e+04 	8.028666e+08 	2.598041e+00 	3.489088e+38 	
1.202042e+06 	1.232286e+04 	8.009583e+08 	2.624837e+00 	3.489082e+38 	
1.202052e+06 	1.219683e+04 	7.990553e+08 	2.651910e+00 	3.489076e+38 	
1.202062e+06 	1.207209e+04 	7.971575e+08 	2.679263e+00 	3.489070e+38 	
1.202072e+06 	1.194863e+04 	7.952649e+08 	2.706897e+00 	3.489064e+38 	
1.202083e+06 	1.182643e+04 	7.933774e+08 	2.734817e+00 	3.489058e+38 	
1.202093e+06 	1.170547e+04 	7.914950e+08 	2.763024e+00 	3.489052e+38 	
1.202103e+06 	1.158576e+04 	7.896177e+08 	2.791523e+00 	3.489046e+38 	
1.202113e+06 	1.146726e+04 	7.877455e+08 	2.820315e+00 	3.489040e+38 	
1.202123e+06 	1.134998e+04 	7.858784e+08 	2.849405e+00 	3.489034e+38 	
1.202134e+06 	1.123390e+04 	7.840163e+08 	2.878795e+00 	3.489028e+38 	
1.202144e+06 	1.111901e+04 	7.821593e+08 	2.908488e+00 	3.489022e+38 	
1.202154e+06 	1.100529e+04 	7.803074e+08 	2.938487e+00 	3.489016e+38 	
1.202164e+06 	1.089274e+04 	7.784605e+08 	2.968795e+00 	3.489010e+38 	
1.202174e+06 	1.078133e+04 	7.766187e+08 	2.999417e+00 	3.489004e+38 	
1.202184e+06 	1.067107e+04 	7.747819e+08 	3.030354e+00 	3.488998e+38 	
1.202195e+06 	1.056193e+04 	7.729500e+08 	3.061610e+00 	3.488992e+38 	
1.202205e+06 	1.045391e+04 	7.711232e+08 	3.093189e+00 	3.488986e+38 	
1.202215e+06 	1.034700e+04 	7.693013e+08 	3.125093e+00 	3.488980e+38 	
1.202225e+06 	1.024117e+04 	7.674843e+08 	3.157327e+00 	3.488974e+38 	
1.202235e+06 	1.013643e+04 	7.656723e+08 	3.189893e+00 	3.488968e+38 	
1.202245e+06 	1.003277e+04 	7.638652e+08 	3.222795e+00 	3.488962e+38 	
1.202255e+06 	9.930157e+03 	7.620630e+08 	3.256036e+00 	3.488956e+38 	
1.202265e+06 	9.828598e+03 	7.602658e+08 	3.289621e+00 	3.488950e+38 	
1.202275e+06 	9.728077e+03 	7.584735e+08 	3.323552e+00 	3.488944e+38 	
1.202285e+06 	9.628585e+03 	7.566860e+08 	3.357833e+00 	3.488938e+38 	
1.202295e+06 	9.530110e+03 	7.549035e+08 	3.392467e+00 	3.488932e+38 	
1.202306e+06 	9.432642e+03 	7.531257e+08 	3.427459e+00 	3.488926e+38 	
1.202316e+06 	9.336171e+03 	7.513528e+08 	3.462812e+00 	3.488920e+38 	
1.202326e+06 	9.240687e+03 	7.495847e+08 	3.498529e+00 	3.488914e+38 	
1.202336e+06 	9.146179e+03 	7.478214e+08 	3.534615e+00 	3.488908e+38 	
1.202346e+06 	9.052638e+03 	7.460629e+08 	3.571073e+00 	3.488902e+38 	
1.202356e+06 	8.960054e+03 	7.443092e+08 	3.607908e+00 	3.488896e+38 	
1.202366e+06 	8.868416e+03 	7.425603e+08 	3.645122e+00 	3.488890e+38 	
1.202376e+06 	8.777716e+03 	7.408163e+08 	3.682720e+00 	3.488883e+38 	
1.202386e+06 	8.687943e+03 	7.390770e+08 	3.720706e+00 	3.488877e+38 	
1.202396e+06 	8.599088e+03 	7.373423e+08 	3.759084e+00 	3.488871e+38 	
1.202406e+06 	8.511142e+03 	7.356125e+08 	3.797858e+00 	3.488865e+38 	
1.202416e+06 	8.424096e+03 	7.338873e+08 	3.837032e+00 	3.488859e+38 	
1.202426e+06 	8.337940e+03 	7.321668e+08 	3.876609e+00 	3.488853e+38 	
1.202436e+06 	8.252665e+03 	7.304510e+08 	3.916596e+00 	3.488847e+38 	
1.202446e+06 	8.168262e+03 	7.287399e+08 	3.956994e+00 	3.488841e+38 	
1.202455e+06 	8.084722e+03 	7.270335e+08 	3.997810e+00 	3.488835e+38 	
1.202465e+06 	8.002037e+03 	7.253317e+08 	4.039046e+00 	3.488828e+38 	
1.202475e+06 	7.920197e+03 	7.236346e+08 	4.080708e+00 	3.488822e+38 	
1.202485e+06 	7.839195e+03 	7.219422e+08 	4.122800e+00 	3.488816e+38 	
1.202495e+06 	7.759021e+03 	7.202543e+08 	4.165326e+00 	3.488810e+38 	
1.202505e+06 	7.679666e+03 	7.185711e+08 	4.208290e+00 	3.488804e+38 	
1.202515e+06 	7.601124e+03 	7.168924e+08 	4.251698e+00 	3.488798e+38 	
1.202525e+06 	7.523384e+03 	7.152183e+08 	4.295554e+00 	3.488792e+38 	
1.202535e+06 	7.446440e+03 	7.135488e+08 	4.339862e+00 	3.488785e+38 	
1.202545e+06 	7.370283e+03 	7.118838e+08 	4.384627e+00 	3.488779e+38 	
1.202555e+06 	7.294904e+03 	7.102234e+08 	4.429854e+00 	3.488773e+38 	
1.202564e+06 	7.220297e+03 	7.085676e+08 	4.475547e+00 	3.488767e+38 	
1.202574e+06 	7.146452e+03 	7.069163e+08 	4.521712e+00 	3.488761e+38 	
1.202584e+06 	7.073363e+03 	7.052695e+08 	4.568353e+00 	3.488754e+38 	
1.202594e+06 	7.001021e+03 	7.036272e+08 	4.615475e+00 	3.488748e+38 	
1.202604e+06 	6.929419e+03 	7.019894e+08 	4.663083e+00 	3.488742e+38 	
1.202614e+06 	6.858550e+03 	7.003561e+08 	4.711183e+00 	3.488736e+38 	
1.202624e+06 	6.788405e+03 	6.987272e+08 	4.759779e+00 	3.488729e+38 	
1.202633e+06 	6.718978e+03 	6.971027e+08 	4.808875e+00 	3.488723e+38 	
1.202643e+06 	6.650260e+03 	6.954827e+08 	4.858479e+00 	3.488717e+38 	
1.202653e+06 	6.582246e+03 	6.938672e+08 	4.908594e+00 	3.488711e+38 	
1.202663e+06 	6.514927e+03 	6.922561e+08 	4.959226e+00 	3.488704e+38 	
1.202673e+06 	6.448296e+03 	6.906495e+08 	5.010381e+00 	3.488698e+38 	
1.202682e+06 	6.382347e+03 	6.890472e+08 	5.062063e+00 	3.488692e+38 	
1.202692e+06 	6.317073e+03 	6.874493e+08 	5.114278e+00 	3.488686e+38 	
1.202702e+06 	6.252466e+03 	6.858558e+08 	5.167032e+00 	3.488679e+38 	
1.202712e+06 	6.188520e+03 	6.842666e+08 	5.220331e+00 	3.488673e+38 	
1.202722e+06 	6.125228e+03 	6.826818e+08 	5.274179e+00 	3.488667e+38 	
1.202731e+06 	6.062583e+03 	6.811013e+08 	5.328582e+00 	3.488660e+38 	
1.202741e+06 	6.000579e+03 	6.795251e+08 	5.383547e+00 	3.488654e+38 	
1.202751e+06 	5.939209e+03 	6.779533e+08 	5.439079e+00 	3.488648e+38 	
1.202761e+06 	5.878466e+03 	6.763858e+08 	5.495183e+00 	3.488641e+38 	
1.202770e+06 	5.818345e+03 	6.748226e+08 	5.551867e+00 	3.488635e+38 	
1.202780e+06 	5.758839e+03 	6.732637e+08 	5.609135e+00 	3.488629e+38 	
1.202790e+06 	5.699941e+03 	6.717091e+08 	5.666994e+00 	3.488622e+38 	
1.202800e+06 	5.641646e+03 	6.701587e+08 	5.725450e+00 	3.488616e+38 	
1.202809e+06 	5.583947e+03 	6.686126e+08 	5.784509e+00 	3.488610e+38 	
1.202819e+06 	5.526838e+03 	6.670707e+08 	5.844177e+00 	3.488603e+38 	
1.202829e+06 	5.470313e+03 	6.655330e+08 	5.904461e+00 	3.488597e+38 	
1.202839e+06 	5.414366e+03 	6.639995e+08 	5.965366e+00 	3.488591e+38 	
1.202848e+06 	5.358992e+03 	6.624703e+08 	6.026900e+00 	3.488584e+38 	
1.202858e+06 	5.304183e+03 	6.609453e+08 	6.089069e+00 	3.488578e+38 	
1.202868e+06 	5.249936e+03 	6.594246e+08 	6.151879e+00 	3.488571e+38 	
1.202877e+06 	5.196243e+03 	6.579079e+08 	6.215337e+00 	3.488565e+38 	
1.202887e+06 	5.143099e+03 	6.563955e+08 	6.279450e+00 	3.488558e+38 	
1.202897e+06 	5.090499e+03 	6.548872e+08 	6.344224e+00 	3.488552e+38 	
1.202906e+06 	5.038436e+03 	6.533830e+08 	6.409666e+00 	3.488546e+38 	
1.202916e+06 	4.986906e+03 	6.518829e+08 	6.475783e+00 	3.488539e+38 	
1.202926e+06 	4.935904e+03 	6.503870e+08 	6.542583e+00 	3.488533e+38 	
1.202935e+06 	4.885422e+03 	6.488952e+08 	6.610071e+00 	3.488526e+38 	
1.202945e+06 	4.835457e+03 	6.474075e+08 	6.678256e+00 	3.488520e+38 	
1.202955e+06 	4.786003e+03 	6.459240e+08 	6.747144e+00 	3.488513e+38 	
1.202964e+06 	4.737055e+03 	6.444445e+08 	6.816743e+00 	3.488507e+38 	
1.202974e+06 	4.688608e+03 	6.429690e+08 	6.887060e+00 	3.488500e+38 	
1.202984e+06 	4.640656e+03 	6.414977e+08 	6.958102e+00 	3.488494e+38 	
1.202993e+06 	4.593194e+03 	6.400303e+08 	7.029877e+00 	3.488487e+38 	
1.203003e+06 	4.546218e+03 	6.385670e+08 	7.102393e+00 	3.488481e+38 	
1.203013e+06 	4.499722e+03 	6.371078e+08 	7.175656e+00 	3.488474e+38 	
1.203022e+06 	4.453702e+03 	6.356525e+08 	7.249676e+00 	3.488467e+38 	
1.203032e+06 	4.408152e+03 	6.342013e+08 	7.324459e+00 	3.488461e+38 	
