r (cm)      	rho (g/cm3) 	T (K)       	u (cm/s)    	L* (erg/s)  			 Edot= 5.366866e+38
1.301040e+06 	9.498457e+04 	1.244099e+09 	1.197183e-01 	3.886890e+38 	
1.301051e+06 	9.394155e+04 	1.240687e+09 	1.210452e-01 	3.886888e+38 	
1.301062e+06 	9.290997e+04 	1.237285e+09 	1.223869e-01 	3.886886e+38 	
1.301073e+06 	9.188972e+04 	1.233892e+09 	1.237435e-01 	3.886884e+38 	
1.301084e+06 	9.088068e+04 	1.230510e+09 	1.251150e-01 	3.886882e+38 	
1.301094e+06 	8.988271e+04 	1.227137e+09 	1.265018e-01 	3.886880e+38 	
1.301105e+06 	8.889571e+04 	1.223774e+09 	1.279040e-01 	3.886878e+38 	
1.301116e+06 	8.791954e+04 	1.220420e+09 	1.293217e-01 	3.886876e+38 	
1.301127e+06 	8.695410e+04 	1.217077e+09 	1.307552e-01 	3.886874e+38 	
1.301138e+06 	8.599925e+04 	1.213743e+09 	1.322045e-01 	3.886872e+38 	
1.301148e+06 	8.505489e+04 	1.210419e+09 	1.336699e-01 	3.886870e+38 	
1.301159e+06 	8.412090e+04 	1.207104e+09 	1.351515e-01 	3.886868e+38 	
1.301170e+06 	8.319716e+04 	1.203799e+09 	1.366496e-01 	3.886866e+38 	
1.301180e+06 	8.228357e+04 	1.200504e+09 	1.381643e-01 	3.886864e+38 	
1.301191e+06 	8.138001e+04 	1.197218e+09 	1.396957e-01 	3.886862e+38 	
1.301202e+06 	8.048638e+04 	1.193941e+09 	1.412442e-01 	3.886860e+38 	
1.301212e+06 	7.960255e+04 	1.190675e+09 	1.428098e-01 	3.886859e+38 	
1.301223e+06 	7.872843e+04 	1.187417e+09 	1.443928e-01 	3.886857e+38 	
1.301234e+06 	7.786392e+04 	1.184169e+09 	1.459933e-01 	3.886855e+38 	
1.301244e+06 	7.700889e+04 	1.180930e+09 	1.476116e-01 	3.886853e+38 	
1.301255e+06 	7.616325e+04 	1.177701e+09 	1.492478e-01 	3.886851e+38 	
1.301265e+06 	7.532690e+04 	1.174481e+09 	1.509022e-01 	3.886849e+38 	
1.301276e+06 	7.449973e+04 	1.171271e+09 	1.525749e-01 	3.886847e+38 	
1.301286e+06 	7.368165e+04 	1.168069e+09 	1.542661e-01 	3.886845e+38 	
1.301297e+06 	7.287255e+04 	1.164877e+09 	1.559762e-01 	3.886843e+38 	
1.301307e+06 	7.207233e+04 	1.161695e+09 	1.577051e-01 	3.886841e+38 	
1.301318e+06 	7.128090e+04 	1.158521e+09 	1.594532e-01 	3.886839e+38 	
1.301328e+06 	7.049817e+04 	1.155357e+09 	1.612208e-01 	3.886837e+38 	
1.301338e+06 	6.972402e+04 	1.152201e+09 	1.630079e-01 	3.886835e+38 	
1.301349e+06 	6.895838e+04 	1.149055e+09 	1.648148e-01 	3.886833e+38 	
1.301359e+06 	6.820115e+04 	1.145918e+09 	1.666418e-01 	3.886831e+38 	
1.301370e+06 	6.745223e+04 	1.142790e+09 	1.684890e-01 	3.886829e+38 	
1.301380e+06 	6.671153e+04 	1.139671e+09 	1.703567e-01 	3.886827e+38 	
1.301390e+06 	6.597897e+04 	1.136562e+09 	1.722451e-01 	3.886825e+38 	
1.301401e+06 	6.525445e+04 	1.133461e+09 	1.741544e-01 	3.886823e+38 	
1.301411e+06 	6.453789e+04 	1.130369e+09 	1.760849e-01 	3.886821e+38 	
1.301421e+06 	6.382920e+04 	1.127286e+09 	1.780369e-01 	3.886819e+38 	
1.301431e+06 	6.312829e+04 	1.124212e+09 	1.800104e-01 	3.886817e+38 	
1.301442e+06 	6.243507e+04 	1.121146e+09 	1.820059e-01 	3.886815e+38 	
1.301452e+06 	6.174947e+04 	1.118090e+09 	1.840235e-01 	3.886813e+38 	
1.301462e+06 	6.107140e+04 	1.115043e+09 	1.860634e-01 	3.886811e+38 	
1.301472e+06 	6.040077e+04 	1.112004e+09 	1.881260e-01 	3.886809e+38 	
1.301482e+06 	5.973751e+04 	1.108974e+09 	1.902114e-01 	3.886807e+38 	
1.301493e+06 	5.908153e+04 	1.105953e+09 	1.923199e-01 	3.886805e+38 	
1.301503e+06 	5.843275e+04 	1.102940e+09 	1.944519e-01 	3.886804e+38 	
1.301513e+06 	5.779110e+04 	1.099937e+09 	1.966074e-01 	3.886802e+38 	
1.301523e+06 	5.715650e+04 	1.096942e+09 	1.987869e-01 	3.886800e+38 	
1.301533e+06 	5.652886e+04 	1.093955e+09 	2.009906e-01 	3.886798e+38 	
1.301543e+06 	5.590811e+04 	1.090978e+09 	2.032186e-01 	3.886796e+38 	
1.301553e+06 	5.529418e+04 	1.088008e+09 	2.054714e-01 	3.886794e+38 	
1.301563e+06 	5.468700e+04 	1.085048e+09 	2.077492e-01 	3.886792e+38 	
1.301573e+06 	5.408648e+04 	1.082096e+09 	2.100522e-01 	3.886790e+38 	
1.301583e+06 	5.349255e+04 	1.079152e+09 	2.123807e-01 	3.886788e+38 	
1.301593e+06 	5.290515e+04 	1.076217e+09 	2.147351e-01 	3.886786e+38 	
1.301603e+06 	5.232419e+04 	1.073291e+09 	2.171156e-01 	3.886784e+38 	
1.301613e+06 	5.174962e+04 	1.070373e+09 	2.195224e-01 	3.886782e+38 	
1.301623e+06 	5.118136e+04 	1.067463e+09 	2.219560e-01 	3.886780e+38 	
1.301633e+06 	5.061933e+04 	1.064562e+09 	2.244165e-01 	3.886778e+38 	
1.301643e+06 	5.006348e+04 	1.061669e+09 	2.269043e-01 	3.886776e+38 	
1.301653e+06 	4.951373e+04 	1.058784e+09 	2.294198e-01 	3.886774e+38 	
1.301663e+06 	4.897002e+04 	1.055908e+09 	2.319631e-01 	3.886772e+38 	
1.301673e+06 	4.843228e+04 	1.053040e+09 	2.345346e-01 	3.886771e+38 	
1.301683e+06 	4.790044e+04 	1.050181e+09 	2.371346e-01 	3.886769e+38 	
1.301692e+06 	4.737444e+04 	1.047329e+09 	2.397634e-01 	3.886767e+38 	
1.301702e+06 	4.685422e+04 	1.044486e+09 	2.424214e-01 	3.886765e+38 	
1.301712e+06 	4.633972e+04 	1.041651e+09 	2.451089e-01 	3.886763e+38 	
1.301722e+06 	4.583086e+04 	1.038825e+09 	2.478261e-01 	3.886761e+38 	
1.301732e+06 	4.532759e+04 	1.036006e+09 	2.505735e-01 	3.886759e+38 	
1.301741e+06 	4.482984e+04 	1.033196e+09 	2.533514e-01 	3.886757e+38 	
1.301751e+06 	4.433757e+04 	1.030393e+09 	2.561600e-01 	3.886755e+38 	
1.301761e+06 	4.385069e+04 	1.027599e+09 	2.589999e-01 	3.886753e+38 	
1.301771e+06 	4.336917e+04 	1.024813e+09 	2.618711e-01 	3.886751e+38 	
1.301780e+06 	4.289293e+04 	1.022035e+09 	2.647743e-01 	3.886749e+38 	
1.301790e+06 	4.242192e+04 	1.019264e+09 	2.677096e-01 	3.886747e+38 	
1.301800e+06 	4.195608e+04 	1.016502e+09 	2.706775e-01 	3.886745e+38 	
1.301809e+06 	4.149536e+04 	1.013748e+09 	2.736783e-01 	3.886744e+38 	
1.301819e+06 	4.103970e+04 	1.011002e+09 	2.767123e-01 	3.886742e+38 	
1.301829e+06 	4.058904e+04 	1.008264e+09 	2.797800e-01 	3.886740e+38 	
1.301838e+06 	4.014333e+04 	1.005533e+09 	2.828817e-01 	3.886738e+38 	
1.301848e+06 	3.970252e+04 	1.002811e+09 	2.860178e-01 	3.886736e+38 	
1.301857e+06 	3.926654e+04 	1.000096e+09 	2.891887e-01 	3.886734e+38 	
1.301867e+06 	3.883536e+04 	9.973890e+08 	2.923948e-01 	3.886732e+38 	
1.301877e+06 	3.840890e+04 	9.946900e+08 	2.956363e-01 	3.886730e+38 	
1.301886e+06 	3.798713e+04 	9.919988e+08 	2.989139e-01 	3.886728e+38 	
1.301896e+06 	3.757000e+04 	9.893153e+08 	3.022278e-01 	3.886726e+38 	
1.301905e+06 	3.715744e+04 	9.866396e+08 	3.055784e-01 	3.886724e+38 	
1.301915e+06 	3.674941e+04 	9.839716e+08 	3.089662e-01 	3.886722e+38 	
1.301924e+06 	3.634586e+04 	9.813112e+08 	3.123915e-01 	3.886721e+38 	
1.301934e+06 	3.594675e+04 	9.786584e+08 	3.158549e-01 	3.886719e+38 	
1.301943e+06 	3.555202e+04 	9.760133e+08 	3.193566e-01 	3.886717e+38 	
1.301953e+06 	3.516162e+04 	9.733759e+08 	3.228972e-01 	3.886715e+38 	
1.301962e+06 	3.477551e+04 	9.707462e+08 	3.264770e-01 	3.886713e+38 	
1.301971e+06 	3.439364e+04 	9.681240e+08 	3.300965e-01 	3.886711e+38 	
1.301981e+06 	3.401596e+04 	9.655094e+08 	3.337562e-01 	3.886709e+38 	
1.301990e+06 	3.364243e+04 	9.629023e+08 	3.374564e-01 	3.886707e+38 	
1.302000e+06 	3.327300e+04 	9.603027e+08 	3.411977e-01 	3.886705e+38 	
1.302009e+06 	3.290763e+04 	9.577105e+08 	3.449804e-01 	3.886703e+38 	
1.302018e+06 	3.254627e+04 	9.551258e+08 	3.488051e-01 	3.886701e+38 	
1.302028e+06 	3.218888e+04 	9.525486e+08 	3.526723e-01 	3.886700e+38 	
1.302037e+06 	3.183541e+04 	9.499789e+08 	3.565823e-01 	3.886698e+38 	
1.302046e+06 	3.148582e+04 	9.474166e+08 	3.605356e-01 	3.886696e+38 	
1.302056e+06 	3.114008e+04 	9.448616e+08 	3.645328e-01 	3.886694e+38 	
1.302065e+06 	3.079813e+04 	9.423141e+08 	3.685743e-01 	3.886692e+38 	
1.302074e+06 	3.045993e+04 	9.397738e+08 	3.726607e-01 	3.886690e+38 	
1.302083e+06 	3.012545e+04 	9.372409e+08 	3.767923e-01 	3.886688e+38 	
1.302093e+06 	2.979464e+04 	9.347152e+08 	3.809698e-01 	3.886686e+38 	
1.302102e+06 	2.946746e+04 	9.321968e+08 	3.851936e-01 	3.886684e+38 	
1.302111e+06 	2.914388e+04 	9.296856e+08 	3.894642e-01 	3.886682e+38 	
1.302120e+06 	2.882385e+04 	9.271818e+08 	3.937822e-01 	3.886680e+38 	
1.302130e+06 	2.850734e+04 	9.246852e+08 	3.981480e-01 	3.886679e+38 	
1.302139e+06 	2.819430e+04 	9.221958e+08 	4.025623e-01 	3.886677e+38 	
1.302148e+06 	2.788469e+04 	9.197135e+08 	4.070256e-01 	3.886675e+38 	
1.302157e+06 	2.757849e+04 	9.172384e+08 	4.115383e-01 	3.886673e+38 	
1.302166e+06 	2.727565e+04 	9.147704e+08 	4.161010e-01 	3.886671e+38 	
1.302175e+06 	2.697614e+04 	9.123095e+08 	4.207144e-01 	3.886669e+38 	
1.302184e+06 	2.667991e+04 	9.098557e+08 	4.253789e-01 	3.886667e+38 	
1.302194e+06 	2.638694e+04 	9.074090e+08 	4.300952e-01 	3.886665e+38 	
1.302203e+06 	2.609718e+04 	9.049693e+08 	4.348637e-01 	3.886663e+38 	
1.302212e+06 	2.581061e+04 	9.025367e+08 	4.396851e-01 	3.886662e+38 	
1.302221e+06 	2.552718e+04 	9.001111e+08 	4.445600e-01 	3.886660e+38 	
1.302230e+06 	2.524686e+04 	8.976925e+08 	4.494890e-01 	3.886658e+38 	
1.302239e+06 	2.496963e+04 	8.952808e+08 	4.544726e-01 	3.886656e+38 	
1.302248e+06 	2.469544e+04 	8.928761e+08 	4.595115e-01 	3.886654e+38 	
1.302257e+06 	2.442425e+04 	8.904783e+08 	4.646062e-01 	3.886652e+38 	
1.302266e+06 	2.415605e+04 	8.880873e+08 	4.697575e-01 	3.886650e+38 	
1.302275e+06 	2.389079e+04 	8.857033e+08 	4.749658e-01 	3.886648e+38 	
1.302284e+06 	2.362845e+04 	8.833262e+08 	4.802320e-01 	3.886646e+38 	
1.302293e+06 	2.336898e+04 	8.809560e+08 	4.855565e-01 	3.886644e+38 	
1.302302e+06 	2.311237e+04 	8.785926e+08 	4.909401e-01 	3.886643e+38 	
1.302311e+06 	2.285857e+04 	8.762360e+08 	4.963833e-01 	3.886641e+38 	
1.302320e+06 	2.260756e+04 	8.738862e+08 	5.018870e-01 	3.886639e+38 	
1.302329e+06 	2.235930e+04 	8.715431e+08 	5.074516e-01 	3.886637e+38 	
1.302337e+06 	2.211377e+04 	8.692067e+08 	5.130780e-01 	3.886635e+38 	
1.302346e+06 	2.187094e+04 	8.668771e+08 	5.187668e-01 	3.886633e+38 	
1.302355e+06 	2.163078e+04 	8.645541e+08 	5.245186e-01 	3.886631e+38 	
1.302364e+06 	2.139325e+04 	8.622379e+08 	5.303343e-01 	3.886629e+38 	
1.302373e+06 	2.115833e+04 	8.599285e+08 	5.362144e-01 	3.886627e+38 	
1.302382e+06 	2.092599e+04 	8.576257e+08 	5.421597e-01 	3.886626e+38 	
1.302391e+06 	2.069620e+04 	8.553295e+08 	5.481710e-01 	3.886624e+38 	
1.302399e+06 	2.046893e+04 	8.530399e+08 	5.542489e-01 	3.886622e+38 	
1.302408e+06 	2.024416e+04 	8.507568e+08 	5.603943e-01 	3.886620e+38 	
1.302417e+06 	2.002186e+04 	8.484804e+08 	5.666077e-01 	3.886618e+38 	
1.302426e+06 	1.980200e+04 	8.462105e+08 	5.728901e-01 	3.886616e+38 	
1.302435e+06 	1.958455e+04 	8.439471e+08 	5.792422e-01 	3.886614e+38 	
1.302443e+06 	1.936950e+04 	8.416903e+08 	5.856647e-01 	3.886612e+38 	
1.302452e+06 	1.915680e+04 	8.394400e+08 	5.921584e-01 	3.886611e+38 	
1.302461e+06 	1.894644e+04 	8.371962e+08 	5.987241e-01 	3.886609e+38 	
1.302470e+06 	1.873839e+04 	8.349589e+08 	6.053627e-01 	3.886607e+38 	
1.302478e+06 	1.853262e+04 	8.327280e+08 	6.120748e-01 	3.886605e+38 	
1.302487e+06 	1.832911e+04 	8.305035e+08 	6.188614e-01 	3.886603e+38 	
1.302496e+06 	1.812784e+04 	8.282853e+08 	6.257233e-01 	3.886601e+38 	
1.302504e+06 	1.792878e+04 	8.260736e+08 	6.326612e-01 	3.886599e+38 	
1.302513e+06 	1.773190e+04 	8.238682e+08 	6.396761e-01 	3.886597e+38 	
1.302522e+06 	1.753719e+04 	8.216692e+08 	6.467688e-01 	3.886595e+38 	
1.302530e+06 	1.734461e+04 	8.194767e+08 	6.539401e-01 	3.886594e+38 	
1.302539e+06 	1.715415e+04 	8.172904e+08 	6.611910e-01 	3.886592e+38 	
1.302548e+06 	1.696578e+04 	8.151104e+08 	6.685223e-01 	3.886590e+38 	
1.302556e+06 	1.677948e+04 	8.129367e+08 	6.759349e-01 	3.886588e+38 	
1.302565e+06 	1.659522e+04 	8.107692e+08 	6.834297e-01 	3.886586e+38 	
1.302573e+06 	1.641299e+04 	8.086080e+08 	6.910076e-01 	3.886584e+38 	
1.302582e+06 	1.623276e+04 	8.064529e+08 	6.986695e-01 	3.886582e+38 	
1.302591e+06 	1.605450e+04 	8.043041e+08 	7.064164e-01 	3.886580e+38 	
1.302599e+06 	1.587821e+04 	8.021615e+08 	7.142492e-01 	3.886578e+38 	
1.302608e+06 	1.570385e+04 	8.000252e+08 	7.221689e-01 	3.886577e+38 	
1.302616e+06 	1.553140e+04 	7.978949e+08 	7.301764e-01 	3.886575e+38 	
1.302625e+06 	1.536085e+04 	7.957708e+08 	7.382727e-01 	3.886573e+38 	
1.302633e+06 	1.519218e+04 	7.936528e+08 	7.464588e-01 	3.886571e+38 	
1.302642e+06 	1.502535e+04 	7.915409e+08 	7.547357e-01 	3.886569e+38 	
1.302650e+06 	1.486036e+04 	7.894350e+08 	7.631044e-01 	3.886567e+38 	
1.302659e+06 	1.469717e+04 	7.873352e+08 	7.715659e-01 	3.886565e+38 	
1.302667e+06 	1.453578e+04 	7.852415e+08 	7.801212e-01 	3.886563e+38 	
1.302676e+06 	1.437617e+04 	7.831539e+08 	7.887714e-01 	3.886562e+38 	
1.302684e+06 	1.421830e+04 	7.810723e+08 	7.975175e-01 	3.886560e+38 	
1.302693e+06 	1.406217e+04 	7.789967e+08 	8.063606e-01 	3.886558e+38 	
1.302701e+06 	1.390775e+04 	7.769270e+08 	8.153018e-01 	3.886556e+38 	
1.302710e+06 	1.375503e+04 	7.748633e+08 	8.243421e-01 	3.886554e+38 	
1.302718e+06 	1.360399e+04 	7.728056e+08 	8.334828e-01 	3.886552e+38 	
1.302726e+06 	1.345460e+04 	7.707537e+08 	8.427247e-01 	3.886550e+38 	
1.302735e+06 	1.330685e+04 	7.687078e+08 	8.520692e-01 	3.886548e+38 	
1.302743e+06 	1.316073e+04 	7.666677e+08 	8.615173e-01 	3.886546e+38 	
1.302752e+06 	1.301621e+04 	7.646336e+08 	8.710702e-01 	3.886545e+38 	
1.302760e+06 	1.287328e+04 	7.626054e+08 	8.807290e-01 	3.886543e+38 	
1.302768e+06 	1.273192e+04 	7.605830e+08 	8.904949e-01 	3.886541e+38 	
1.302777e+06 	1.259211e+04 	7.585664e+08 	9.003691e-01 	3.886539e+38 	
1.302785e+06 	1.245384e+04 	7.565557e+08 	9.103529e-01 	3.886537e+38 	
1.302793e+06 	1.231708e+04 	7.545507e+08 	9.204473e-01 	3.886535e+38 	
1.302802e+06 	1.218182e+04 	7.525515e+08 	9.306537e-01 	3.886533e+38 	
1.302810e+06 	1.204806e+04 	7.505580e+08 	9.409733e-01 	3.886531e+38 	
1.302818e+06 	1.191576e+04 	7.485703e+08 	9.514074e-01 	3.886530e+38 	
1.302827e+06 	1.178491e+04 	7.465883e+08 	9.619572e-01 	3.886528e+38 	
1.302835e+06 	1.165550e+04 	7.446121e+08 	9.726239e-01 	3.886526e+38 	
1.302843e+06 	1.152751e+04 	7.426416e+08 	9.834090e-01 	3.886524e+38 	
1.302851e+06 	1.140092e+04 	7.406768e+08 	9.943136e-01 	3.886522e+38 	
1.302860e+06 	1.127573e+04 	7.387176e+08 	1.005339e+00 	3.886520e+38 	
1.302868e+06 	1.115191e+04 	7.367640e+08 	1.016487e+00 	3.886518e+38 	
1.302876e+06 	1.102945e+04 	7.348161e+08 	1.027759e+00 	3.886516e+38 	
1.302884e+06 	1.090834e+04 	7.328738e+08 	1.039155e+00 	3.886514e+38 	
1.302892e+06 	1.078855e+04 	7.309370e+08 	1.050678e+00 	3.886513e+38 	
1.302901e+06 	1.067008e+04 	7.290059e+08 	1.062329e+00 	3.886511e+38 	
1.302909e+06 	1.055291e+04 	7.270804e+08 	1.074109e+00 	3.886509e+38 	
1.302917e+06 	1.043703e+04 	7.251605e+08 	1.086019e+00 	3.886507e+38 	
1.302925e+06 	1.032242e+04 	7.232461e+08 	1.098062e+00 	3.886505e+38 	
1.302933e+06 	1.020907e+04 	7.213371e+08 	1.110238e+00 	3.886503e+38 	
1.302942e+06 	1.009697e+04 	7.194337e+08 	1.122549e+00 	3.886501e+38 	
1.302950e+06 	9.986091e+03 	7.175358e+08 	1.134997e+00 	3.886499e+38 	
1.302958e+06 	9.876433e+03 	7.156433e+08 	1.147583e+00 	3.886498e+38 	
1.302966e+06 	9.767980e+03 	7.137563e+08 	1.160308e+00 	3.886496e+38 	
1.302974e+06 	9.660717e+03 	7.118748e+08 	1.173175e+00 	3.886494e+38 	
1.302982e+06 	9.554632e+03 	7.099987e+08 	1.186184e+00 	3.886492e+38 	
1.302990e+06 	9.449713e+03 	7.081280e+08 	1.199337e+00 	3.886490e+38 	
1.302998e+06 	9.345945e+03 	7.062627e+08 	1.212637e+00 	3.886488e+38 	
1.303006e+06 	9.243317e+03 	7.044028e+08 	1.226084e+00 	3.886486e+38 	
1.303015e+06 	9.141816e+03 	7.025482e+08 	1.239679e+00 	3.886484e+38 	
1.303023e+06 	9.041429e+03 	7.006990e+08 	1.253426e+00 	3.886482e+38 	
1.303031e+06 	8.942145e+03 	6.988551e+08 	1.267325e+00 	3.886481e+38 	
1.303039e+06 	8.843951e+03 	6.970165e+08 	1.281379e+00 	3.886479e+38 	
1.303047e+06 	8.746835e+03 	6.951833e+08 	1.295588e+00 	3.886477e+38 	
1.303055e+06 	8.650786e+03 	6.933554e+08 	1.309955e+00 	3.886475e+38 	
1.303063e+06 	8.555791e+03 	6.915328e+08 	1.324481e+00 	3.886473e+38 	
1.303071e+06 	8.461840e+03 	6.897154e+08 	1.339168e+00 	3.886471e+38 	
1.303079e+06 	8.368920e+03 	6.879032e+08 	1.354018e+00 	3.886469e+38 	
1.303087e+06 	8.277021e+03 	6.860963e+08 	1.369033e+00 	3.886467e+38 	
1.303095e+06 	8.186130e+03 	6.842945e+08 	1.384215e+00 	3.886465e+38 	
1.303103e+06 	8.096238e+03 	6.824980e+08 	1.399564e+00 	3.886464e+38 	
1.303111e+06 	8.007333e+03 	6.807066e+08 	1.415084e+00 	3.886462e+38 	
1.303119e+06 	7.919404e+03 	6.789205e+08 	1.430776e+00 	3.886460e+38 	
1.303127e+06 	7.832441e+03 	6.771395e+08 	1.446642e+00 	3.886458e+38 	
1.303135e+06 	7.746433e+03 	6.753637e+08 	1.462685e+00 	3.886456e+38 	
1.303143e+06 	7.661369e+03 	6.735930e+08 	1.478905e+00 	3.886454e+38 	
1.303151e+06 	7.577239e+03 	6.718274e+08 	1.495304e+00 	3.886452e+38 	
1.303158e+06 	7.494033e+03 	6.700669e+08 	1.511886e+00 	3.886450e+38 	
1.303166e+06 	7.411741e+03 	6.683114e+08 	1.528652e+00 	3.886448e+38 	
1.303174e+06 	7.330352e+03 	6.665611e+08 	1.545603e+00 	3.886446e+38 	
1.303182e+06 	7.249858e+03 	6.648157e+08 	1.562743e+00 	3.886445e+38 	
1.303190e+06 	7.170247e+03 	6.630755e+08 	1.580073e+00 	3.886443e+38 	
1.303198e+06 	7.091510e+03 	6.613403e+08 	1.597595e+00 	3.886441e+38 	
1.303206e+06 	7.013638e+03 	6.596101e+08 	1.615311e+00 	3.886439e+38 	
1.303214e+06 	6.936621e+03 	6.578849e+08 	1.633223e+00 	3.886437e+38 	
1.303222e+06 	6.860450e+03 	6.561647e+08 	1.651335e+00 	3.886435e+38 	
1.303229e+06 	6.785115e+03 	6.544495e+08 	1.669647e+00 	3.886433e+38 	
1.303237e+06 	6.710607e+03 	6.527391e+08 	1.688162e+00 	3.886431e+38 	
1.303245e+06 	6.636918e+03 	6.510338e+08 	1.706883e+00 	3.886429e+38 	
1.303253e+06 	6.564038e+03 	6.493333e+08 	1.725811e+00 	3.886427e+38 	
1.303261e+06 	6.491958e+03 	6.476378e+08 	1.744949e+00 	3.886426e+38 	
1.303269e+06 	6.420669e+03 	6.459472e+08 	1.764300e+00 	3.886424e+38 	
1.303276e+06 	6.350164e+03 	6.442615e+08 	1.783865e+00 	3.886422e+38 	
1.303284e+06 	6.280432e+03 	6.425807e+08 	1.803647e+00 	3.886420e+38 	
1.303292e+06 	6.211467e+03 	6.409047e+08 	1.823649e+00 	3.886418e+38 	
1.303300e+06 	6.143258e+03 	6.392336e+08 	1.843872e+00 	3.886416e+38 	
1.303308e+06 	6.075799e+03 	6.375673e+08 	1.864319e+00 	3.886414e+38 	
1.303315e+06 	6.009080e+03 	6.359058e+08 	1.884994e+00 	3.886412e+38 	
1.303323e+06 	5.943094e+03 	6.342491e+08 	1.905897e+00 	3.886410e+38 	
1.303331e+06 	5.877833e+03 	6.325972e+08 	1.927033e+00 	3.886408e+38 	
1.303339e+06 	5.813288e+03 	6.309501e+08 	1.948403e+00 	3.886406e+38 	
1.303346e+06 	5.749453e+03 	6.293078e+08 	1.970010e+00 	3.886405e+38 	
1.303354e+06 	5.686318e+03 	6.276702e+08 	1.991856e+00 	3.886403e+38 	
1.303362e+06 	5.623876e+03 	6.260374e+08 	2.013945e+00 	3.886401e+38 	
1.303370e+06 	5.562120e+03 	6.244093e+08 	2.036279e+00 	3.886399e+38 	
1.303377e+06 	5.501042e+03 	6.227858e+08 	2.058860e+00 	3.886397e+38 	
1.303385e+06 	5.440635e+03 	6.211671e+08 	2.081692e+00 	3.886395e+38 	
1.303393e+06 	5.380891e+03 	6.195530e+08 	2.104777e+00 	3.886393e+38 	
1.303400e+06 	5.321803e+03 	6.179437e+08 	2.128119e+00 	3.886391e+38 	
1.303408e+06 	5.263365e+03 	6.163390e+08 	2.151719e+00 	3.886389e+38 	
1.303416e+06 	5.205567e+03 	6.147390e+08 	2.175580e+00 	3.886387e+38 	
1.303423e+06 	5.148405e+03 	6.131436e+08 	2.199707e+00 	3.886385e+38 	
1.303431e+06 	5.091870e+03 	6.115528e+08 	2.224101e+00 	3.886383e+38 	
1.303439e+06 	5.035956e+03 	6.099666e+08 	2.248766e+00 	3.886381e+38 	
1.303446e+06 	4.980656e+03 	6.083850e+08 	2.273704e+00 	3.886380e+38 	
1.303454e+06 	4.925963e+03 	6.068079e+08 	2.298918e+00 	3.886378e+38 	
1.303462e+06 	4.871871e+03 	6.052354e+08 	2.324413e+00 	3.886376e+38 	
1.303469e+06 	4.818373e+03 	6.036675e+08 	2.350190e+00 	3.886374e+38 	
1.303477e+06 	4.765462e+03 	6.021042e+08 	2.376253e+00 	3.886372e+38 	
1.303484e+06 	4.713132e+03 	6.005454e+08 	2.402605e+00 	3.886370e+38 	
1.303492e+06 	4.661377e+03 	5.989911e+08 	2.429249e+00 	3.886368e+38 	
1.303500e+06 	4.610191e+03 	5.974413e+08 	2.456189e+00 	3.886366e+38 	
1.303507e+06 	4.559566e+03 	5.958960e+08 	2.483428e+00 	3.886364e+38 	
1.303515e+06 	4.509497e+03 	5.943552e+08 	2.510968e+00 	3.886362e+38 	
1.303522e+06 	4.459978e+03 	5.928188e+08 	2.538815e+00 	3.886360e+38 	
1.303530e+06 	4.411003e+03 	5.912868e+08 	2.566970e+00 	3.886358e+38 	
1.303538e+06 	4.362566e+03 	5.897594e+08 	2.595437e+00 	3.886356e+38 	
