r (cm)      	rho (g/cm3) 	T (K)       	u (cm/s)    	L* (erg/s)  			 Edot= 1.073951e+39
1.300100e+06 	7.485187e+04 	1.305505e+09 	6.057763e-01 	4.847667e+38 	
1.300113e+06 	7.408073e+04 	1.302334e+09 	6.120692e-01 	4.847656e+38 	
1.300125e+06 	7.331753e+04 	1.299171e+09 	6.184275e-01 	4.847644e+38 	
1.300137e+06 	7.256220e+04 	1.296017e+09 	6.248519e-01 	4.847633e+38 	
1.300149e+06 	7.181465e+04 	1.292871e+09 	6.313430e-01 	4.847622e+38 	
1.300161e+06 	7.107480e+04 	1.289734e+09 	6.379016e-01 	4.847611e+38 	
1.300174e+06 	7.034257e+04 	1.286606e+09 	6.445283e-01 	4.847599e+38 	
1.300186e+06 	6.961788e+04 	1.283486e+09 	6.512239e-01 	4.847588e+38 	
1.300198e+06 	6.890066e+04 	1.280375e+09 	6.579890e-01 	4.847577e+38 	
1.300210e+06 	6.819083e+04 	1.277273e+09 	6.648244e-01 	4.847566e+38 	
1.300222e+06 	6.748832e+04 	1.274179e+09 	6.717309e-01 	4.847554e+38 	
1.300234e+06 	6.679304e+04 	1.271093e+09 	6.787091e-01 	4.847543e+38 	
1.300246e+06 	6.610492e+04 	1.268016e+09 	6.857599e-01 	4.847532e+38 	
1.300258e+06 	6.542389e+04 	1.264948e+09 	6.928839e-01 	4.847521e+38 	
1.300271e+06 	6.474988e+04 	1.261887e+09 	7.000819e-01 	4.847509e+38 	
1.300283e+06 	6.408281e+04 	1.258836e+09 	7.073547e-01 	4.847498e+38 	
1.300295e+06 	6.342262e+04 	1.255792e+09 	7.147031e-01 	4.847487e+38 	
1.300307e+06 	6.276922e+04 	1.252757e+09 	7.221278e-01 	4.847475e+38 	
1.300319e+06 	6.212256e+04 	1.249730e+09 	7.296297e-01 	4.847464e+38 	
1.300331e+06 	6.148256e+04 	1.246712e+09 	7.372095e-01 	4.847453e+38 	
1.300343e+06 	6.084915e+04 	1.243702e+09 	7.448682e-01 	4.847441e+38 	
1.300355e+06 	6.022227e+04 	1.240700e+09 	7.526063e-01 	4.847430e+38 	
1.300367e+06 	5.960185e+04 	1.237706e+09 	7.604249e-01 	4.847419e+38 	
1.300379e+06 	5.898782e+04 	1.234721e+09 	7.683247e-01 	4.847407e+38 	
1.300391e+06 	5.838011e+04 	1.231744e+09 	7.763067e-01 	4.847396e+38 	
1.300402e+06 	5.777867e+04 	1.228775e+09 	7.843715e-01 	4.847385e+38 	
1.300414e+06 	5.718342e+04 	1.225814e+09 	7.925202e-01 	4.847373e+38 	
1.300426e+06 	5.659430e+04 	1.222861e+09 	8.007535e-01 	4.847362e+38 	
1.300438e+06 	5.601126e+04 	1.219916e+09 	8.090724e-01 	4.847351e+38 	
1.300450e+06 	5.543422e+04 	1.216980e+09 	8.174777e-01 	4.847339e+38 	
1.300462e+06 	5.486312e+04 	1.214051e+09 	8.259704e-01 	4.847328e+38 	
1.300474e+06 	5.429791e+04 	1.211131e+09 	8.345513e-01 	4.847317e+38 	
1.300486e+06 	5.373852e+04 	1.208219e+09 	8.432213e-01 	4.847305e+38 	
1.300497e+06 	5.318489e+04 	1.205314e+09 	8.519815e-01 	4.847294e+38 	
1.300509e+06 	5.263697e+04 	1.202418e+09 	8.608327e-01 	4.847282e+38 	
1.300521e+06 	5.209469e+04 	1.199529e+09 	8.697758e-01 	4.847271e+38 	
1.300533e+06 	5.155800e+04 	1.196649e+09 	8.788119e-01 	4.847260e+38 	
1.300545e+06 	5.102684e+04 	1.193776e+09 	8.879419e-01 	4.847248e+38 	
1.300556e+06 	5.050115e+04 	1.190911e+09 	8.971668e-01 	4.847237e+38 	
1.300568e+06 	4.998088e+04 	1.188055e+09 	9.064875e-01 	4.847225e+38 	
1.300580e+06 	4.946596e+04 	1.185206e+09 	9.159050e-01 	4.847214e+38 	
1.300592e+06 	4.895635e+04 	1.182364e+09 	9.254205e-01 	4.847202e+38 	
1.300603e+06 	4.845199e+04 	1.179531e+09 	9.350348e-01 	4.847191e+38 	
1.300615e+06 	4.795283e+04 	1.176706e+09 	9.447490e-01 	4.847180e+38 	
1.300627e+06 	4.745881e+04 	1.173888e+09 	9.545641e-01 	4.847168e+38 	
1.300638e+06 	4.696988e+04 	1.171078e+09 	9.644812e-01 	4.847157e+38 	
1.300650e+06 	4.648598e+04 	1.168275e+09 	9.745014e-01 	4.847145e+38 	
1.300662e+06 	4.600707e+04 	1.165481e+09 	9.846257e-01 	4.847134e+38 	
1.300673e+06 	4.553310e+04 	1.162694e+09 	9.948552e-01 	4.847122e+38 	
1.300685e+06 	4.506401e+04 	1.159915e+09 	1.005191e+00 	4.847111e+38 	
1.300697e+06 	4.459975e+04 	1.157143e+09 	1.015634e+00 	4.847099e+38 	
1.300708e+06 	4.414027e+04 	1.154379e+09 	1.026186e+00 	4.847088e+38 	
1.300720e+06 	4.368553e+04 	1.151623e+09 	1.036847e+00 	4.847076e+38 	
1.300732e+06 	4.323547e+04 	1.148874e+09 	1.047619e+00 	4.847065e+38 	
1.300743e+06 	4.279005e+04 	1.146133e+09 	1.058504e+00 	4.847053e+38 	
1.300755e+06 	4.234922e+04 	1.143399e+09 	1.069501e+00 	4.847041e+38 	
1.300766e+06 	4.191293e+04 	1.140673e+09 	1.080612e+00 	4.847030e+38 	
1.300778e+06 	4.148113e+04 	1.137954e+09 	1.091839e+00 	4.847018e+38 	
1.300789e+06 	4.105378e+04 	1.135243e+09 	1.103183e+00 	4.847007e+38 	
1.300801e+06 	4.063084e+04 	1.132539e+09 	1.114644e+00 	4.846995e+38 	
1.300812e+06 	4.021225e+04 	1.129843e+09 	1.126225e+00 	4.846984e+38 	
1.300824e+06 	3.979797e+04 	1.127154e+09 	1.137926e+00 	4.846972e+38 	
1.300835e+06 	3.938797e+04 	1.124473e+09 	1.149748e+00 	4.846960e+38 	
1.300847e+06 	3.898218e+04 	1.121799e+09 	1.161693e+00 	4.846949e+38 	
1.300858e+06 	3.858058e+04 	1.119132e+09 	1.173763e+00 	4.846937e+38 	
1.300870e+06 	3.818311e+04 	1.116473e+09 	1.185958e+00 	4.846925e+38 	
1.300881e+06 	3.778974e+04 	1.113821e+09 	1.198279e+00 	4.846914e+38 	
1.300893e+06 	3.740042e+04 	1.111176e+09 	1.210729e+00 	4.846902e+38 	
1.300904e+06 	3.701512e+04 	1.108539e+09 	1.223308e+00 	4.846891e+38 	
1.300916e+06 	3.663378e+04 	1.105908e+09 	1.236018e+00 	4.846879e+38 	
1.300927e+06 	3.625637e+04 	1.103286e+09 	1.248860e+00 	4.846867e+38 	
1.300938e+06 	3.588285e+04 	1.100670e+09 	1.261835e+00 	4.846855e+38 	
1.300950e+06 	3.551317e+04 	1.098061e+09 	1.274945e+00 	4.846844e+38 	
1.300961e+06 	3.514731e+04 	1.095460e+09 	1.288191e+00 	4.846832e+38 	
1.300973e+06 	3.478521e+04 	1.092866e+09 	1.301575e+00 	4.846820e+38 	
1.300984e+06 	3.442685e+04 	1.090279e+09 	1.315098e+00 	4.846809e+38 	
1.300995e+06 	3.407218e+04 	1.087699e+09 	1.328762e+00 	4.846797e+38 	
1.301007e+06 	3.372116e+04 	1.085127e+09 	1.342567e+00 	4.846785e+38 	
1.301018e+06 	3.337375e+04 	1.082561e+09 	1.356516e+00 	4.846773e+38 	
1.301029e+06 	3.302993e+04 	1.080002e+09 	1.370610e+00 	4.846762e+38 	
1.301041e+06 	3.268965e+04 	1.077451e+09 	1.384851e+00 	4.846750e+38 	
1.301052e+06 	3.235287e+04 	1.074907e+09 	1.399239e+00 	4.846738e+38 	
1.301063e+06 	3.201957e+04 	1.072369e+09 	1.413777e+00 	4.846726e+38 	
1.301074e+06 	3.168969e+04 	1.069839e+09 	1.428466e+00 	4.846714e+38 	
1.301086e+06 	3.136322e+04 	1.067315e+09 	1.443307e+00 	4.846703e+38 	
1.301097e+06 	3.104011e+04 	1.064799e+09 	1.458303e+00 	4.846691e+38 	
1.301108e+06 	3.072033e+04 	1.062289e+09 	1.473455e+00 	4.846679e+38 	
1.301119e+06 	3.040384e+04 	1.059787e+09 	1.488764e+00 	4.846667e+38 	
1.301131e+06 	3.009061e+04 	1.057291e+09 	1.504232e+00 	4.846655e+38 	
1.301142e+06 	2.978061e+04 	1.054802e+09 	1.519861e+00 	4.846643e+38 	
1.301153e+06 	2.947381e+04 	1.052320e+09 	1.535653e+00 	4.846632e+38 	
1.301164e+06 	2.917016e+04 	1.049845e+09 	1.551608e+00 	4.846620e+38 	
1.301176e+06 	2.886964e+04 	1.047377e+09 	1.567729e+00 	4.846608e+38 	
1.301187e+06 	2.857222e+04 	1.044916e+09 	1.584018e+00 	4.846596e+38 	
1.301198e+06 	2.827786e+04 	1.042461e+09 	1.600476e+00 	4.846584e+38 	
1.301209e+06 	2.798654e+04 	1.040013e+09 	1.617105e+00 	4.846572e+38 	
1.301220e+06 	2.769822e+04 	1.037572e+09 	1.633907e+00 	4.846560e+38 	
1.301231e+06 	2.741286e+04 	1.035138e+09 	1.650883e+00 	4.846548e+38 	
1.301243e+06 	2.713045e+04 	1.032710e+09 	1.668036e+00 	4.846536e+38 	
1.301254e+06 	2.685094e+04 	1.030289e+09 	1.685367e+00 	4.846524e+38 	
1.301265e+06 	2.657432e+04 	1.027875e+09 	1.702879e+00 	4.846512e+38 	
1.301276e+06 	2.630055e+04 	1.025468e+09 	1.720572e+00 	4.846500e+38 	
1.301287e+06 	2.602959e+04 	1.023067e+09 	1.738449e+00 	4.846488e+38 	
1.301298e+06 	2.576143e+04 	1.020673e+09 	1.756512e+00 	4.846476e+38 	
1.301309e+06 	2.549603e+04 	1.018285e+09 	1.774762e+00 	4.846464e+38 	
1.301320e+06 	2.523336e+04 	1.015904e+09 	1.793202e+00 	4.846452e+38 	
1.301331e+06 	2.497340e+04 	1.013530e+09 	1.811834e+00 	4.846440e+38 	
1.301343e+06 	2.471612e+04 	1.011162e+09 	1.830660e+00 	4.846428e+38 	
1.301354e+06 	2.446149e+04 	1.008801e+09 	1.849681e+00 	4.846416e+38 	
1.301365e+06 	2.420948e+04 	1.006446e+09 	1.868899e+00 	4.846404e+38 	
1.301376e+06 	2.396007e+04 	1.004098e+09 	1.888318e+00 	4.846392e+38 	
1.301387e+06 	2.371323e+04 	1.001756e+09 	1.907938e+00 	4.846379e+38 	
1.301398e+06 	2.346893e+04 	9.994210e+08 	1.927762e+00 	4.846367e+38 	
1.301409e+06 	2.322715e+04 	9.970922e+08 	1.947792e+00 	4.846355e+38 	
1.301420e+06 	2.298786e+04 	9.947698e+08 	1.968030e+00 	4.846343e+38 	
1.301431e+06 	2.275103e+04 	9.924540e+08 	1.988479e+00 	4.846331e+38 	
1.301442e+06 	2.251665e+04 	9.901446e+08 	2.009140e+00 	4.846319e+38 	
1.301453e+06 	2.228467e+04 	9.878417e+08 	2.030016e+00 	4.846306e+38 	
1.301464e+06 	2.205509e+04 	9.855451e+08 	2.051108e+00 	4.846294e+38 	
1.301475e+06 	2.182788e+04 	9.832548e+08 	2.072420e+00 	4.846282e+38 	
1.301486e+06 	2.160300e+04 	9.809709e+08 	2.093954e+00 	4.846270e+38 	
1.301497e+06 	2.138044e+04 	9.786933e+08 	2.115711e+00 	4.846257e+38 	
1.301508e+06 	2.116018e+04 	9.764220e+08 	2.137694e+00 	4.846245e+38 	
1.301519e+06 	2.094218e+04 	9.741571e+08 	2.159906e+00 	4.846233e+38 	
1.301530e+06 	2.072643e+04 	9.718984e+08 	2.182348e+00 	4.846220e+38 	
1.301540e+06 	2.051290e+04 	9.696460e+08 	2.205024e+00 	4.846208e+38 	
1.301551e+06 	2.030157e+04 	9.673999e+08 	2.227935e+00 	4.846196e+38 	
1.301562e+06 	2.009242e+04 	9.651600e+08 	2.251085e+00 	4.846183e+38 	
1.301573e+06 	1.988542e+04 	9.629264e+08 	2.274475e+00 	4.846171e+38 	
1.301584e+06 	1.968056e+04 	9.606989e+08 	2.298108e+00 	4.846159e+38 	
1.301595e+06 	1.947781e+04 	9.584776e+08 	2.321986e+00 	4.846146e+38 	
1.301606e+06 	1.927714e+04 	9.562624e+08 	2.346113e+00 	4.846134e+38 	
1.301617e+06 	1.907854e+04 	9.540534e+08 	2.370490e+00 	4.846121e+38 	
1.301628e+06 	1.888199e+04 	9.518506e+08 	2.395121e+00 	4.846109e+38 	
1.301639e+06 	1.868747e+04 	9.496539e+08 	2.420008e+00 	4.846097e+38 	
1.301649e+06 	1.849494e+04 	9.474633e+08 	2.445153e+00 	4.846084e+38 	
1.301660e+06 	1.830440e+04 	9.452789e+08 	2.470560e+00 	4.846072e+38 	
1.301671e+06 	1.811583e+04 	9.431005e+08 	2.496231e+00 	4.846059e+38 	
1.301682e+06 	1.792919e+04 	9.409282e+08 	2.522168e+00 	4.846047e+38 	
1.301693e+06 	1.774448e+04 	9.387618e+08 	2.548375e+00 	4.846034e+38 	
1.301704e+06 	1.756168e+04 	9.366015e+08 	2.574855e+00 	4.846022e+38 	
1.301714e+06 	1.738075e+04 	9.344472e+08 	2.601609e+00 	4.846009e+38 	
1.301725e+06 	1.720169e+04 	9.322989e+08 	2.628642e+00 	4.845996e+38 	
1.301736e+06 	1.702448e+04 	9.301566e+08 	2.655955e+00 	4.845984e+38 	
1.301747e+06 	1.684909e+04 	9.280202e+08 	2.683553e+00 	4.845971e+38 	
1.301758e+06 	1.667550e+04 	9.258899e+08 	2.711437e+00 	4.845959e+38 	
1.301768e+06 	1.650371e+04 	9.237655e+08 	2.739611e+00 	4.845946e+38 	
1.301779e+06 	1.633368e+04 	9.216470e+08 	2.768077e+00 	4.845933e+38 	
1.301790e+06 	1.616541e+04 	9.195344e+08 	2.796840e+00 	4.845921e+38 	
1.301801e+06 	1.599887e+04 	9.174277e+08 	2.825901e+00 	4.845908e+38 	
1.301811e+06 	1.583405e+04 	9.153269e+08 	2.855264e+00 	4.845895e+38 	
1.301822e+06 	1.567092e+04 	9.132318e+08 	2.884933e+00 	4.845882e+38 	
1.301833e+06 	1.550948e+04 	9.111427e+08 	2.914910e+00 	4.845870e+38 	
1.301844e+06 	1.534969e+04 	9.090593e+08 	2.945198e+00 	4.845857e+38 	
1.301854e+06 	1.519156e+04 	9.069818e+08 	2.975801e+00 	4.845844e+38 	
1.301865e+06 	1.503505e+04 	9.049102e+08 	3.006722e+00 	4.845831e+38 	
1.301876e+06 	1.488016e+04 	9.028443e+08 	3.037965e+00 	4.845818e+38 	
1.301887e+06 	1.472686e+04 	9.007842e+08 	3.069532e+00 	4.845806e+38 	
1.301897e+06 	1.457514e+04 	8.987298e+08 	3.101427e+00 	4.845793e+38 	
1.301908e+06 	1.442498e+04 	8.966812e+08 	3.133653e+00 	4.845780e+38 	
1.301919e+06 	1.427637e+04 	8.946382e+08 	3.166215e+00 	4.845767e+38 	
1.301929e+06 	1.412929e+04 	8.926010e+08 	3.199115e+00 	4.845754e+38 	
1.301940e+06 	1.398373e+04 	8.905694e+08 	3.232357e+00 	4.845741e+38 	
1.301951e+06 	1.383967e+04 	8.885435e+08 	3.265944e+00 	4.845728e+38 	
1.301962e+06 	1.369709e+04 	8.865233e+08 	3.299880e+00 	4.845715e+38 	
1.301972e+06 	1.355598e+04 	8.845088e+08 	3.334169e+00 	4.845702e+38 	
1.301983e+06 	1.341632e+04 	8.825000e+08 	3.368814e+00 	4.845689e+38 	
1.301994e+06 	1.327810e+04 	8.804968e+08 	3.403819e+00 	4.845676e+38 	
1.302004e+06 	1.314131e+04 	8.784991e+08 	3.439188e+00 	4.845663e+38 	
1.302015e+06 	1.300592e+04 	8.765071e+08 	3.474925e+00 	4.845650e+38 	
1.302026e+06 	1.287193e+04 	8.745206e+08 	3.511033e+00 	4.845637e+38 	
1.302036e+06 	1.273933e+04 	8.725396e+08 	3.547516e+00 	4.845624e+38 	
1.302047e+06 	1.260808e+04 	8.705642e+08 	3.584378e+00 	4.845611e+38 	
1.302057e+06 	1.247819e+04 	8.685944e+08 	3.621624e+00 	4.845598e+38 	
1.302068e+06 	1.234964e+04 	8.666301e+08 	3.659256e+00 	4.845584e+38 	
1.302079e+06 	1.222241e+04 	8.646713e+08 	3.697279e+00 	4.845571e+38 	
1.302089e+06 	1.209649e+04 	8.627180e+08 	3.735698e+00 	4.845558e+38 	
1.302100e+06 	1.197187e+04 	8.607702e+08 	3.774516e+00 	4.845545e+38 	
1.302111e+06 	1.184853e+04 	8.588279e+08 	3.813737e+00 	4.845532e+38 	
1.302121e+06 	1.172647e+04 	8.568910e+08 	3.853366e+00 	4.845518e+38 	
1.302132e+06 	1.160566e+04 	8.549595e+08 	3.893407e+00 	4.845505e+38 	
1.302142e+06 	1.148609e+04 	8.530334e+08 	3.933863e+00 	4.845492e+38 	
1.302153e+06 	1.136776e+04 	8.511127e+08 	3.974740e+00 	4.845478e+38 	
1.302164e+06 	1.125065e+04 	8.491974e+08 	4.016042e+00 	4.845465e+38 	
1.302174e+06 	1.113474e+04 	8.472876e+08 	4.057773e+00 	4.845452e+38 	
1.302185e+06 	1.102003e+04 	8.453832e+08 	4.099938e+00 	4.845438e+38 	
1.302195e+06 	1.090650e+04 	8.434840e+08 	4.142541e+00 	4.845425e+38 	
1.302206e+06 	1.079414e+04 	8.415903e+08 	4.185587e+00 	4.845411e+38 	
1.302216e+06 	1.068293e+04 	8.397018e+08 	4.229080e+00 	4.845398e+38 	
1.302227e+06 	1.057288e+04 	8.378186e+08 	4.273025e+00 	4.845384e+38 	
1.302238e+06 	1.046395e+04 	8.359407e+08 	4.317427e+00 	4.845371e+38 	
1.302248e+06 	1.035615e+04 	8.340681e+08 	4.362290e+00 	4.845357e+38 	
1.302259e+06 	1.024946e+04 	8.322008e+08 	4.407619e+00 	4.845344e+38 	
1.302269e+06 	1.014387e+04 	8.303387e+08 	4.453419e+00 	4.845330e+38 	
1.302280e+06 	1.003936e+04 	8.284819e+08 	4.499696e+00 	4.845316e+38 	
1.302290e+06 	9.935934e+03 	8.266304e+08 	4.546453e+00 	4.845303e+38 	
1.302301e+06 	9.833572e+03 	8.247841e+08 	4.593696e+00 	4.845289e+38 	
1.302311e+06 	9.732265e+03 	8.229430e+08 	4.641430e+00 	4.845275e+38 	
1.302322e+06 	9.632001e+03 	8.211070e+08 	4.689660e+00 	4.845262e+38 	
1.302332e+06 	9.532770e+03 	8.192763e+08 	4.738391e+00 	4.845248e+38 	
1.302343e+06 	9.434561e+03 	8.174507e+08 	4.787629e+00 	4.845234e+38 	
1.302353e+06 	9.337364e+03 	8.156302e+08 	4.837378e+00 	4.845221e+38 	
1.302364e+06 	9.241168e+03 	8.138148e+08 	4.887645e+00 	4.845207e+38 	
1.302374e+06 	9.145964e+03 	8.120046e+08 	4.938433e+00 	4.845193e+38 	
1.302385e+06 	9.051740e+03 	8.101996e+08 	4.989750e+00 	4.845179e+38 	
1.302395e+06 	8.958487e+03 	8.083997e+08 	5.041600e+00 	4.845165e+38 	
1.302406e+06 	8.866195e+03 	8.066048e+08 	5.093988e+00 	4.845151e+38 	
1.302416e+06 	8.774853e+03 	8.048150e+08 	5.146921e+00 	4.845137e+38 	
1.302427e+06 	8.684453e+03 	8.030303e+08 	5.200404e+00 	4.845123e+38 	
1.302437e+06 	8.594984e+03 	8.012506e+08 	5.254443e+00 	4.845109e+38 	
1.302448e+06 	8.506436e+03 	7.994759e+08 	5.309043e+00 	4.845095e+38 	
1.302458e+06 	8.418801e+03 	7.977062e+08 	5.364211e+00 	4.845081e+38 	
1.302469e+06 	8.332069e+03 	7.959416e+08 	5.419952e+00 	4.845067e+38 	
1.302479e+06 	8.246230e+03 	7.941819e+08 	5.476273e+00 	4.845053e+38 	
1.302490e+06 	8.161275e+03 	7.924273e+08 	5.533178e+00 	4.845039e+38 	
1.302500e+06 	8.077196e+03 	7.906777e+08 	5.590675e+00 	4.845025e+38 	
1.302511e+06 	7.993983e+03 	7.889330e+08 	5.648770e+00 	4.845011e+38 	
1.302521e+06 	7.911627e+03 	7.871932e+08 	5.707468e+00 	4.844997e+38 	
1.302532e+06 	7.830120e+03 	7.854584e+08 	5.766776e+00 	4.844982e+38 	
1.302542e+06 	7.749452e+03 	7.837285e+08 	5.826701e+00 	4.844968e+38 	
1.302553e+06 	7.669616e+03 	7.820035e+08 	5.887248e+00 	4.844954e+38 	
1.302563e+06 	7.590602e+03 	7.802834e+08 	5.948424e+00 	4.844939e+38 	
1.302574e+06 	7.512401e+03 	7.785681e+08 	6.010236e+00 	4.844925e+38 	
1.302584e+06 	7.435007e+03 	7.768578e+08 	6.072691e+00 	4.844911e+38 	
1.302595e+06 	7.358410e+03 	7.751523e+08 	6.135794e+00 	4.844896e+38 	
1.302605e+06 	7.282602e+03 	7.734517e+08 	6.199553e+00 	4.844882e+38 	
1.302615e+06 	7.207575e+03 	7.717559e+08 	6.263975e+00 	4.844867e+38 	
1.302626e+06 	7.133321e+03 	7.700650e+08 	6.329066e+00 	4.844853e+38 	
1.302636e+06 	7.059832e+03 	7.683788e+08 	6.394834e+00 	4.844838e+38 	
1.302647e+06 	6.987100e+03 	7.666974e+08 	6.461285e+00 	4.844824e+38 	
1.302657e+06 	6.915117e+03 	7.650208e+08 	6.528427e+00 	4.844809e+38 	
1.302668e+06 	6.843876e+03 	7.633490e+08 	6.596266e+00 	4.844795e+38 	
1.302678e+06 	6.773369e+03 	7.616819e+08 	6.664810e+00 	4.844780e+38 	
1.302688e+06 	6.703588e+03 	7.600196e+08 	6.734067e+00 	4.844765e+38 	
1.302699e+06 	6.634526e+03 	7.583621e+08 	6.804043e+00 	4.844751e+38 	
1.302709e+06 	6.566176e+03 	7.567093e+08 	6.874747e+00 	4.844736e+38 	
1.302720e+06 	6.498530e+03 	7.550612e+08 	6.946185e+00 	4.844721e+38 	
1.302730e+06 	6.431581e+03 	7.534178e+08 	7.018365e+00 	4.844706e+38 	
1.302741e+06 	6.365321e+03 	7.517791e+08 	7.091296e+00 	4.844692e+38 	
1.302751e+06 	6.299744e+03 	7.501451e+08 	7.164984e+00 	4.844677e+38 	
1.302761e+06 	6.234843e+03 	7.485157e+08 	7.239439e+00 	4.844662e+38 	
1.302772e+06 	6.170610e+03 	7.468909e+08 	7.314667e+00 	4.844647e+38 	
1.302782e+06 	6.107039e+03 	7.452708e+08 	7.390676e+00 	4.844632e+38 	
1.302793e+06 	6.044123e+03 	7.436553e+08 	7.467476e+00 	4.844617e+38 	
1.302803e+06 	5.981855e+03 	7.420446e+08 	7.545074e+00 	4.844602e+38 	
1.302814e+06 	5.920229e+03 	7.404384e+08 	7.623478e+00 	4.844587e+38 	
1.302824e+06 	5.859237e+03 	7.388368e+08 	7.702696e+00 	4.844572e+38 	
1.302834e+06 	5.798874e+03 	7.372398e+08 	7.782738e+00 	4.844557e+38 	
1.302845e+06 	5.739133e+03 	7.356473e+08 	7.863612e+00 	4.844542e+38 	
1.302855e+06 	5.680007e+03 	7.340594e+08 	7.945326e+00 	4.844526e+38 	
1.302866e+06 	5.621490e+03 	7.324761e+08 	8.027889e+00 	4.844511e+38 	
1.302876e+06 	5.563576e+03 	7.308972e+08 	8.111311e+00 	4.844496e+38 	
1.302886e+06 	5.506259e+03 	7.293229e+08 	8.195599e+00 	4.844481e+38 	
1.302897e+06 	5.449532e+03 	7.277532e+08 	8.280763e+00 	4.844465e+38 	
1.302907e+06 	5.393390e+03 	7.261880e+08 	8.366812e+00 	4.844450e+38 	
1.302918e+06 	5.337826e+03 	7.246272e+08 	8.453755e+00 	4.844435e+38 	
1.302928e+06 	5.282835e+03 	7.230710e+08 	8.541602e+00 	4.844419e+38 	
1.302938e+06 	5.228410e+03 	7.215192e+08 	8.630361e+00 	4.844404e+38 	
1.302949e+06 	5.174546e+03 	7.199719e+08 	8.720043e+00 	4.844388e+38 	
1.302959e+06 	5.121236e+03 	7.184290e+08 	8.810657e+00 	4.844373e+38 	
1.302970e+06 	5.068476e+03 	7.168905e+08 	8.902212e+00 	4.844357e+38 	
1.302980e+06 	5.016260e+03 	7.153564e+08 	8.994719e+00 	4.844341e+38 	
1.302990e+06 	4.964581e+03 	7.138267e+08 	9.088187e+00 	4.844326e+38 	
1.303001e+06 	4.913435e+03 	7.123015e+08 	9.182626e+00 	4.844310e+38 	
1.303011e+06 	4.862815e+03 	7.107807e+08 	9.278047e+00 	4.844294e+38 	
1.303022e+06 	4.812718e+03 	7.092643e+08 	9.374459e+00 	4.844279e+38 	
1.303032e+06 	4.763136e+03 	7.077523e+08 	9.471873e+00 	4.844263e+38 	
1.303042e+06 	4.714065e+03 	7.062446e+08 	9.570300e+00 	4.844247e+38 	
1.303053e+06 	4.665500e+03 	7.047413e+08 	9.669749e+00 	4.844231e+38 	
1.303063e+06 	4.617435e+03 	7.032422e+08 	9.770232e+00 	4.844215e+38 	
1.303074e+06 	4.569865e+03 	7.017475e+08 	9.871759e+00 	4.844199e+38 	
1.303084e+06 	4.522785e+03 	7.002571e+08 	9.974340e+00 	4.844183e+38 	
1.303094e+06 	4.476190e+03 	6.987711e+08 	1.007799e+01 	4.844167e+38 	
1.303105e+06 	4.430076e+03 	6.972893e+08 	1.018271e+01 	4.844151e+38 	
1.303115e+06 	4.384436e+03 	6.958118e+08 	1.028853e+01 	4.844135e+38 	
1.303126e+06 	4.339267e+03 	6.943387e+08 	1.039544e+01 	4.844119e+38 	
1.303136e+06 	4.294563e+03 	6.928697e+08 	1.050346e+01 	4.844103e+38 	
1.303146e+06 	4.250319e+03 	6.914050e+08 	1.061261e+01 	4.844086e+38 	
1.303157e+06 	4.206531e+03 	6.899446e+08 	1.072289e+01 	4.844070e+38 	
1.303167e+06 	4.163195e+03 	6.884884e+08 	1.083431e+01 	4.844054e+38 	
