r (cm)      	rho (g/cm3) 	T (K)       	u (cm/s)    	L* (erg/s)  			 Edot= 3.202974e+39
1.299812e+06 	1.906708e+04 	1.466675e+09 	9.472085e+00 	8.520856e+38 	
1.299841e+06 	1.888044e+04 	1.464476e+09 	9.565247e+00 	8.520497e+38 	
1.299870e+06 	1.869562e+04 	1.462283e+09 	9.659324e+00 	8.520136e+38 	
1.299899e+06 	1.851261e+04 	1.460096e+09 	9.754326e+00 	8.519774e+38 	
1.299928e+06 	1.833140e+04 	1.457916e+09 	9.850261e+00 	8.519410e+38 	
1.299957e+06 	1.815195e+04 	1.455742e+09 	9.947139e+00 	8.519044e+38 	
1.299987e+06 	1.797427e+04 	1.453575e+09 	1.004497e+01 	8.518676e+38 	
1.300016e+06 	1.779832e+04 	1.451413e+09 	1.014376e+01 	8.518307e+38 	
1.300045e+06 	1.762410e+04 	1.449259e+09 	1.024352e+01 	8.517936e+38 	
1.300074e+06 	1.745158e+04 	1.447110e+09 	1.034427e+01 	8.517563e+38 	
1.300104e+06 	1.728075e+04 	1.444967e+09 	1.044600e+01 	8.517188e+38 	
1.300133e+06 	1.711159e+04 	1.442831e+09 	1.054873e+01 	8.516811e+38 	
1.300162e+06 	1.694409e+04 	1.440701e+09 	1.065247e+01 	8.516433e+38 	
1.300192e+06 	1.677823e+04 	1.438577e+09 	1.075723e+01 	8.516053e+38 	
1.300221e+06 	1.661399e+04 	1.436460e+09 	1.086302e+01 	8.515671e+38 	
1.300251e+06 	1.645136e+04 	1.434348e+09 	1.096985e+01 	8.515287e+38 	
1.300280e+06 	1.629032e+04 	1.432243e+09 	1.107773e+01 	8.514901e+38 	
1.300310e+06 	1.613085e+04 	1.430144e+09 	1.118667e+01 	8.514513e+38 	
1.300340e+06 	1.597295e+04 	1.428051e+09 	1.129668e+01 	8.514124e+38 	
1.300370e+06 	1.581660e+04 	1.425964e+09 	1.140777e+01 	8.513732e+38 	
1.300399e+06 	1.566177e+04 	1.423883e+09 	1.151995e+01 	8.513339e+38 	
1.300429e+06 	1.550846e+04 	1.421808e+09 	1.163324e+01 	8.512944e+38 	
1.300459e+06 	1.535665e+04 	1.419740e+09 	1.174764e+01 	8.512546e+38 	
1.300489e+06 	1.520633e+04 	1.417677e+09 	1.186316e+01 	8.512147e+38 	
1.300519e+06 	1.505748e+04 	1.415620e+09 	1.197981e+01 	8.511746e+38 	
1.300549e+06 	1.491008e+04 	1.413569e+09 	1.209762e+01 	8.511343e+38 	
1.300579e+06 	1.476413e+04 	1.411524e+09 	1.221657e+01 	8.510938e+38 	
1.300610e+06 	1.461961e+04 	1.409485e+09 	1.233670e+01 	8.510531e+38 	
1.300640e+06 	1.447650e+04 	1.407452e+09 	1.245801e+01 	8.510121e+38 	
1.300670e+06 	1.433479e+04 	1.405425e+09 	1.258051e+01 	8.509710e+38 	
1.300700e+06 	1.419447e+04 	1.403404e+09 	1.270421e+01 	8.509297e+38 	
1.300731e+06 	1.405552e+04 	1.401388e+09 	1.282913e+01 	8.508881e+38 	
1.300761e+06 	1.391794e+04 	1.399378e+09 	1.295528e+01 	8.508464e+38 	
1.300792e+06 	1.378170e+04 	1.397375e+09 	1.308266e+01 	8.508045e+38 	
1.300822e+06 	1.364679e+04 	1.395376e+09 	1.321130e+01 	8.507623e+38 	
1.300853e+06 	1.351320e+04 	1.393384e+09 	1.334120e+01 	8.507199e+38 	
1.300884e+06 	1.338093e+04 	1.391398e+09 	1.347237e+01 	8.506773e+38 	
1.300914e+06 	1.324994e+04 	1.389417e+09 	1.360484e+01 	8.506345e+38 	
1.300945e+06 	1.312024e+04 	1.387442e+09 	1.373860e+01 	8.505915e+38 	
1.300976e+06 	1.299181e+04 	1.385473e+09 	1.387368e+01 	8.505483e+38 	
1.301007e+06 	1.286463e+04 	1.383509e+09 	1.401008e+01 	8.505048e+38 	
1.301038e+06 	1.273871e+04 	1.381551e+09 	1.414783e+01 	8.504612e+38 	
1.301069e+06 	1.261401e+04 	1.379599e+09 	1.428693e+01 	8.504173e+38 	
1.301100e+06 	1.249053e+04 	1.377652e+09 	1.442739e+01 	8.503732e+38 	
1.301131e+06 	1.236827e+04 	1.375711e+09 	1.456923e+01 	8.503288e+38 	
1.301163e+06 	1.224719e+04 	1.373775e+09 	1.471247e+01 	8.502843e+38 	
1.301194e+06 	1.212731e+04 	1.371845e+09 	1.485711e+01 	8.502395e+38 	
1.301225e+06 	1.200860e+04 	1.369921e+09 	1.500318e+01 	8.501944e+38 	
1.301257e+06 	1.189105e+04 	1.368002e+09 	1.515067e+01 	8.501492e+38 	
1.301288e+06 	1.177465e+04 	1.366089e+09 	1.529962e+01 	8.501037e+38 	
1.301320e+06 	1.165939e+04 	1.364181e+09 	1.545003e+01 	8.500580e+38 	
1.301351e+06 	1.154526e+04 	1.362278e+09 	1.560192e+01 	8.500120e+38 	
1.301383e+06 	1.143224e+04 	1.360381e+09 	1.575529e+01 	8.499659e+38 	
1.301415e+06 	1.132033e+04 	1.358490e+09 	1.591018e+01 	8.499194e+38 	
1.301446e+06 	1.120952e+04 	1.356604e+09 	1.606658e+01 	8.498728e+38 	
1.301478e+06 	1.109979e+04 	1.354723e+09 	1.622452e+01 	8.498259e+38 	
1.301510e+06 	1.099114e+04 	1.352848e+09 	1.638401e+01 	8.497787e+38 	
1.301542e+06 	1.088355e+04 	1.350978e+09 	1.654507e+01 	8.497313e+38 	
1.301574e+06 	1.077701e+04 	1.349113e+09 	1.670771e+01 	8.496837e+38 	
1.301606e+06 	1.067152e+04 	1.347254e+09 	1.687194e+01 	8.496358e+38 	
1.301638e+06 	1.056706e+04 	1.345400e+09 	1.703779e+01 	8.495877e+38 	
1.301671e+06 	1.046362e+04 	1.343551e+09 	1.720526e+01 	8.495393e+38 	
1.301703e+06 	1.036119e+04 	1.341708e+09 	1.737438e+01 	8.494906e+38 	
1.301735e+06 	1.025977e+04 	1.339870e+09 	1.754516e+01 	8.494418e+38 	
1.301768e+06 	1.015934e+04 	1.338037e+09 	1.771762e+01 	8.493926e+38 	
1.301800e+06 	1.005989e+04 	1.336209e+09 	1.789177e+01 	8.493432e+38 	
1.301833e+06 	9.961416e+03 	1.334387e+09 	1.806763e+01 	8.492935e+38 	
1.301866e+06 	9.863905e+03 	1.332569e+09 	1.824522e+01 	8.492436e+38 	
1.301898e+06 	9.767350e+03 	1.330757e+09 	1.842454e+01 	8.491934e+38 	
1.301931e+06 	9.671739e+03 	1.328950e+09 	1.860563e+01 	8.491430e+38 	
1.301964e+06 	9.577064e+03 	1.327148e+09 	1.878850e+01 	8.490923e+38 	
1.301997e+06 	9.483316e+03 	1.325351e+09 	1.897316e+01 	8.490413e+38 	
1.302030e+06 	9.390486e+03 	1.323559e+09 	1.915964e+01 	8.489901e+38 	
1.302063e+06 	9.298564e+03 	1.321773e+09 	1.934794e+01 	8.489385e+38 	
1.302096e+06 	9.207542e+03 	1.319991e+09 	1.953810e+01 	8.488867e+38 	
1.302130e+06 	9.117411e+03 	1.318215e+09 	1.973011e+01 	8.488347e+38 	
1.302163e+06 	9.028163e+03 	1.316443e+09 	1.992402e+01 	8.487823e+38 	
1.302196e+06 	8.939788e+03 	1.314677e+09 	2.011983e+01 	8.487297e+38 	
1.302230e+06 	8.852278e+03 	1.312915e+09 	2.031755e+01 	8.486768e+38 	
1.302263e+06 	8.765625e+03 	1.311158e+09 	2.051722e+01 	8.486236e+38 	
1.302297e+06 	8.679820e+03 	1.309407e+09 	2.071885e+01 	8.485702e+38 	
1.302331e+06 	8.594855e+03 	1.307660e+09 	2.092246e+01 	8.485164e+38 	
1.302365e+06 	8.510721e+03 	1.305918e+09 	2.112806e+01 	8.484624e+38 	
1.302398e+06 	8.427411e+03 	1.304181e+09 	2.133569e+01 	8.484081e+38 	
1.302432e+06 	8.344917e+03 	1.302449e+09 	2.154535e+01 	8.483534e+38 	
1.302466e+06 	8.263230e+03 	1.300722e+09 	2.175707e+01 	8.482985e+38 	
1.302500e+06 	8.182343e+03 	1.298999e+09 	2.197086e+01 	8.482433e+38 	
1.302535e+06 	8.102248e+03 	1.297282e+09 	2.218676e+01 	8.481878e+38 	
1.302569e+06 	8.022936e+03 	1.295569e+09 	2.240477e+01 	8.481320e+38 	
1.302603e+06 	7.944401e+03 	1.293861e+09 	2.262492e+01 	8.480759e+38 	
1.302638e+06 	7.866635e+03 	1.292157e+09 	2.284723e+01 	8.480195e+38 	
1.302672e+06 	7.789630e+03 	1.290459e+09 	2.307172e+01 	8.479628e+38 	
1.302707e+06 	7.713379e+03 	1.288765e+09 	2.329841e+01 	8.479058e+38 	
1.302742e+06 	7.637874e+03 	1.287076e+09 	2.352733e+01 	8.478485e+38 	
1.302776e+06 	7.563109e+03 	1.285391e+09 	2.375850e+01 	8.477909e+38 	
1.302811e+06 	7.489075e+03 	1.283712e+09 	2.399193e+01 	8.477329e+38 	
1.302846e+06 	7.415766e+03 	1.282036e+09 	2.422765e+01 	8.476747e+38 	
1.302881e+06 	7.343174e+03 	1.280366e+09 	2.446568e+01 	8.476161e+38 	
1.302916e+06 	7.271293e+03 	1.278700e+09 	2.470605e+01 	8.475572e+38 	
1.302952e+06 	7.200116e+03 	1.277039e+09 	2.494878e+01 	8.474980e+38 	
1.302987e+06 	7.129635e+03 	1.275382e+09 	2.519389e+01 	8.474385e+38 	
1.303022e+06 	7.059845e+03 	1.273730e+09 	2.544140e+01 	8.473786e+38 	
1.303058e+06 	6.990737e+03 	1.272082e+09 	2.569134e+01 	8.473184e+38 	
1.303093e+06 	6.922306e+03 	1.270439e+09 	2.594373e+01 	8.472579e+38 	
1.303129e+06 	6.854545e+03 	1.268801e+09 	2.619860e+01 	8.471971e+38 	
1.303165e+06 	6.787447e+03 	1.267167e+09 	2.645597e+01 	8.471359e+38 	
1.303201e+06 	6.721006e+03 	1.265537e+09 	2.671586e+01 	8.470744e+38 	
1.303236e+06 	6.655216e+03 	1.263912e+09 	2.697830e+01 	8.470125e+38 	
1.303272e+06 	6.590069e+03 	1.262291e+09 	2.724331e+01 	8.469503e+38 	
1.303309e+06 	6.525560e+03 	1.260675e+09 	2.751092e+01 	8.468878e+38 	
1.303345e+06 	6.461683e+03 	1.259063e+09 	2.778116e+01 	8.468249e+38 	
1.303381e+06 	6.398431e+03 	1.257456e+09 	2.805405e+01 	8.467617e+38 	
1.303418e+06 	6.335798e+03 	1.255853e+09 	2.832961e+01 	8.466981e+38 	
1.303454e+06 	6.273778e+03 	1.254254e+09 	2.860787e+01 	8.466342e+38 	
1.303491e+06 	6.212365e+03 	1.252659e+09 	2.888886e+01 	8.465700e+38 	
1.303527e+06 	6.151553e+03 	1.251069e+09 	2.917261e+01 	8.465053e+38 	
1.303564e+06 	6.091337e+03 	1.249484e+09 	2.945914e+01 	8.464404e+38 	
1.303601e+06 	6.031710e+03 	1.247902e+09 	2.974848e+01 	8.463750e+38 	
1.303638e+06 	5.972667e+03 	1.246325e+09 	3.004066e+01 	8.463093e+38 	
1.303675e+06 	5.914201e+03 	1.244752e+09 	3.033570e+01 	8.462432e+38 	
1.303712e+06 	5.856308e+03 	1.243183e+09 	3.063363e+01 	8.461768e+38 	
1.303750e+06 	5.798982e+03 	1.241618e+09 	3.093449e+01 	8.461100e+38 	
1.303787e+06 	5.742217e+03 	1.240058e+09 	3.123829e+01 	8.460428e+38 	
1.303825e+06 	5.686008e+03 	1.238502e+09 	3.154507e+01 	8.459753e+38 	
1.303862e+06 	5.630348e+03 	1.236950e+09 	3.185486e+01 	8.459073e+38 	
1.303900e+06 	5.575234e+03 	1.235402e+09 	3.216768e+01 	8.458390e+38 	
1.303938e+06 	5.520659e+03 	1.233858e+09 	3.248357e+01 	8.457704e+38 	
1.303976e+06 	5.466618e+03 	1.232318e+09 	3.280256e+01 	8.457013e+38 	
1.304014e+06 	5.413107e+03 	1.230782e+09 	3.312467e+01 	8.456318e+38 	
1.304052e+06 	5.360119e+03 	1.229251e+09 	3.344994e+01 	8.455620e+38 	
1.304090e+06 	5.307650e+03 	1.227724e+09 	3.377840e+01 	8.454918e+38 	
1.304128e+06 	5.255694e+03 	1.226200e+09 	3.411008e+01 	8.454211e+38 	
1.304167e+06 	5.204247e+03 	1.224681e+09 	3.444501e+01 	8.453501e+38 	
1.304205e+06 	5.153304e+03 	1.223165e+09 	3.478322e+01 	8.452787e+38 	
1.304244e+06 	5.102859e+03 	1.221654e+09 	3.512474e+01 	8.452069e+38 	
1.304283e+06 	5.052908e+03 	1.220146e+09 	3.546961e+01 	8.451347e+38 	
1.304322e+06 	5.003446e+03 	1.218643e+09 	3.581786e+01 	8.450620e+38 	
1.304361e+06 	4.954468e+03 	1.217143e+09 	3.616952e+01 	8.449890e+38 	
1.304400e+06 	4.905970e+03 	1.215647e+09 	3.652463e+01 	8.449156e+38 	
1.304439e+06 	4.857947e+03 	1.214156e+09 	3.688322e+01 	8.448417e+38 	
1.304479e+06 	4.810393e+03 	1.212668e+09 	3.724532e+01 	8.447674e+38 	
1.304518e+06 	4.763305e+03 	1.211184e+09 	3.761097e+01 	8.446927e+38 	
1.304558e+06 	4.716678e+03 	1.209704e+09 	3.798020e+01 	8.446176e+38 	
1.304598e+06 	4.670507e+03 	1.208227e+09 	3.835304e+01 	8.445421e+38 	
1.304637e+06 	4.624789e+03 	1.206755e+09 	3.872954e+01 	8.444661e+38 	
1.304677e+06 	4.579517e+03 	1.205286e+09 	3.910973e+01 	8.443897e+38 	
1.304717e+06 	4.534689e+03 	1.203821e+09 	3.949364e+01 	8.443129e+38 	
1.304758e+06 	4.490300e+03 	1.202360e+09 	3.988131e+01 	8.442356e+38 	
1.304798e+06 	4.446346e+03 	1.200902e+09 	4.027278e+01 	8.441579e+38 	
1.304838e+06 	4.402821e+03 	1.199448e+09 	4.066808e+01 	8.440797e+38 	
1.304879e+06 	4.359723e+03 	1.197998e+09 	4.106725e+01 	8.440012e+38 	
1.304920e+06 	4.317046e+03 	1.196552e+09 	4.147034e+01 	8.439221e+38 	
1.304961e+06 	4.274788e+03 	1.195109e+09 	4.187737e+01 	8.438426e+38 	
1.305002e+06 	4.232942e+03 	1.193670e+09 	4.228839e+01 	8.437627e+38 	
1.305043e+06 	4.191507e+03 	1.192235e+09 	4.270343e+01 	8.436823e+38 	
1.305084e+06 	4.150477e+03 	1.190803e+09 	4.312253e+01 	8.436015e+38 	
1.305125e+06 	4.109849e+03 	1.189375e+09 	4.354574e+01 	8.435202e+38 	
1.305167e+06 	4.069618e+03 	1.187950e+09 	4.397309e+01 	8.434384e+38 	
1.305208e+06 	4.029782e+03 	1.186529e+09 	4.440463e+01 	8.433561e+38 	
1.305250e+06 	3.990335e+03 	1.185112e+09 	4.484039e+01 	8.432734e+38 	
1.305292e+06 	3.951274e+03 	1.183698e+09 	4.528042e+01 	8.431903e+38 	
1.305334e+06 	3.912596e+03 	1.182287e+09 	4.572475e+01 	8.431066e+38 	
1.305376e+06 	3.874296e+03 	1.180880e+09 	4.617344e+01 	8.430225e+38 	
1.305418e+06 	3.836372e+03 	1.179477e+09 	4.662652e+01 	8.429379e+38 	
1.305461e+06 	3.798818e+03 	1.178077e+09 	4.708403e+01 	8.428528e+38 	
1.305503e+06 	3.761632e+03 	1.176681e+09 	4.754602e+01 	8.427672e+38 	
1.305546e+06 	3.724810e+03 	1.175288e+09 	4.801253e+01 	8.426811e+38 	
1.305589e+06 	3.688349e+03 	1.173898e+09 	4.848361e+01 	8.425946e+38 	
1.305632e+06 	3.652244e+03 	1.172512e+09 	4.895930e+01 	8.425075e+38 	
1.305675e+06 	3.616493e+03 	1.171129e+09 	4.943964e+01 	8.424199e+38 	
1.305718e+06 	3.581092e+03 	1.169749e+09 	4.992468e+01 	8.423319e+38 	
1.305762e+06 	3.546037e+03 	1.168373e+09 	5.041447e+01 	8.422433e+38 	
1.305805e+06 	3.511326e+03 	1.167000e+09 	5.090905e+01 	8.421542e+38 	
1.305849e+06 	3.476954e+03 	1.165631e+09 	5.140848e+01 	8.420646e+38 	
1.305893e+06 	3.442919e+03 	1.164265e+09 	5.191278e+01 	8.419745e+38 	
1.305937e+06 	3.409217e+03 	1.162902e+09 	5.242203e+01 	8.418839e+38 	
1.305981e+06 	3.375845e+03 	1.161543e+09 	5.293625e+01 	8.417928e+38 	
1.306025e+06 	3.342799e+03 	1.160186e+09 	5.345551e+01 	8.417011e+38 	
1.306070e+06 	3.310077e+03 	1.158833e+09 	5.397984e+01 	8.416089e+38 	
1.306114e+06 	3.277676e+03 	1.157483e+09 	5.450930e+01 	8.415162e+38 	
1.306159e+06 	3.245591e+03 	1.156136e+09 	5.504395e+01 	8.414229e+38 	
1.306204e+06 	3.213821e+03 	1.154793e+09 	5.558382e+01 	8.413291e+38 	
1.306249e+06 	3.182361e+03 	1.153453e+09 	5.612897e+01 	8.412348e+38 	
1.306294e+06 	3.151210e+03 	1.152115e+09 	5.667945e+01 	8.411399e+38 	
1.306340e+06 	3.120363e+03 	1.150781e+09 	5.723532e+01 	8.410445e+38 	
1.306385e+06 	3.089818e+03 	1.149450e+09 	5.779662e+01 	8.409485e+38 	
1.306431e+06 	3.059573e+03 	1.148123e+09 	5.836342e+01 	8.408520e+38 	
1.306477e+06 	3.029623e+03 	1.146798e+09 	5.893575e+01 	8.407549e+38 	
1.306523e+06 	2.999967e+03 	1.145476e+09 	5.951368e+01 	8.406573e+38 	
1.306569e+06 	2.970601e+03 	1.144158e+09 	6.009726e+01 	8.405590e+38 	
1.306616e+06 	2.941522e+03 	1.142842e+09 	6.068655e+01 	8.404603e+38 	
1.306662e+06 	2.912728e+03 	1.141529e+09 	6.128159e+01 	8.403609e+38 	
1.306709e+06 	2.884216e+03 	1.140220e+09 	6.188246e+01 	8.402610e+38 	
1.306756e+06 	2.855983e+03 	1.138913e+09 	6.248920e+01 	8.401605e+38 	
1.306803e+06 	2.828026e+03 	1.137609e+09 	6.310186e+01 	8.400594e+38 	
1.306850e+06 	2.800343e+03 	1.136309e+09 	6.372052e+01 	8.399577e+38 	
1.306897e+06 	2.772931e+03 	1.135011e+09 	6.434523e+01 	8.398555e+38 	
1.306945e+06 	2.745788e+03 	1.133716e+09 	6.497604e+01 	8.397526e+38 	
1.306993e+06 	2.718910e+03 	1.132424e+09 	6.561301e+01 	8.396492e+38 	
1.307040e+06 	2.692295e+03 	1.131135e+09 	6.625621e+01 	8.395451e+38 	
1.307089e+06 	2.665940e+03 	1.129849e+09 	6.690569e+01 	8.394405e+38 	
1.307137e+06 	2.639844e+03 	1.128566e+09 	6.756152e+01 	8.393352e+38 	
1.307185e+06 	2.614003e+03 	1.127285e+09 	6.822376e+01 	8.392294e+38 	
1.307234e+06 	2.588415e+03 	1.126008e+09 	6.889247e+01 	8.391229e+38 	
1.307283e+06 	2.563078e+03 	1.124733e+09 	6.956770e+01 	8.390158e+38 	
1.307332e+06 	2.537988e+03 	1.123461e+09 	7.024954e+01 	8.389081e+38 	
1.307381e+06 	2.513144e+03 	1.122191e+09 	7.093804e+01 	8.387997e+38 	
1.307430e+06 	2.488544e+03 	1.120925e+09 	7.163326e+01 	8.386908e+38 	
1.307480e+06 	2.464184e+03 	1.119661e+09 	7.233527e+01 	8.385812e+38 	
1.307530e+06 	2.440062e+03 	1.118400e+09 	7.304414e+01 	8.384709e+38 	
1.307580e+06 	2.416177e+03 	1.117142e+09 	7.375994e+01 	8.383600e+38 	
1.307630e+06 	2.392525e+03 	1.115886e+09 	7.448272e+01 	8.382485e+38 	
1.307680e+06 	2.369105e+03 	1.114633e+09 	7.521256e+01 	8.381363e+38 	
1.307730e+06 	2.345915e+03 	1.113383e+09 	7.594952e+01 	8.380235e+38 	
1.307781e+06 	2.322951e+03 	1.112135e+09 	7.669369e+01 	8.379101e+38 	
1.307832e+06 	2.300212e+03 	1.110890e+09 	7.744511e+01 	8.377959e+38 	
1.307883e+06 	2.277696e+03 	1.109647e+09 	7.820388e+01 	8.376811e+38 	
1.307935e+06 	2.255400e+03 	1.108407e+09 	7.897005e+01 	8.375657e+38 	
1.307986e+06 	2.233322e+03 	1.107170e+09 	7.974370e+01 	8.374495e+38 	
1.308038e+06 	2.211461e+03 	1.105935e+09 	8.052490e+01 	8.373327e+38 	
1.308090e+06 	2.189813e+03 	1.104703e+09 	8.131372e+01 	8.372153e+38 	
1.308142e+06 	2.168377e+03 	1.103473e+09 	8.211025e+01 	8.370971e+38 	
1.308194e+06 	2.147152e+03 	1.102246e+09 	8.291454e+01 	8.369782e+38 	
1.308247e+06 	2.126134e+03 	1.101021e+09 	8.372669e+01 	8.368587e+38 	
1.308300e+06 	2.105321e+03 	1.099799e+09 	8.454676e+01 	8.367385e+38 	
1.308353e+06 	2.084713e+03 	1.098579e+09 	8.537483e+01 	8.366175e+38 	
1.308406e+06 	2.064306e+03 	1.097362e+09 	8.621098e+01 	8.364959e+38 	
1.308459e+06 	2.044099e+03 	1.096147e+09 	8.705529e+01 	8.363736e+38 	
1.308513e+06 	2.024089e+03 	1.094934e+09 	8.790783e+01 	8.362505e+38 	
1.308567e+06 	2.004276e+03 	1.093724e+09 	8.876869e+01 	8.361268e+38 	
1.308621e+06 	1.984656e+03 	1.092516e+09 	8.963795e+01 	8.360023e+38 	
1.308675e+06 	1.965229e+03 	1.091311e+09 	9.051568e+01 	8.358771e+38 	
1.308730e+06 	1.945992e+03 	1.090108e+09 	9.140198e+01 	8.357511e+38 	
1.308784e+06 	1.926943e+03 	1.088908e+09 	9.229691e+01 	8.356245e+38 	
1.308839e+06 	1.908080e+03 	1.087709e+09 	9.320058e+01 	8.354971e+38 	
1.308895e+06 	1.889403e+03 	1.086513e+09 	9.411305e+01 	8.353690e+38 	
1.308950e+06 	1.870908e+03 	1.085319e+09 	9.503442e+01 	8.352401e+38 	
1.309006e+06 	1.852594e+03 	1.084128e+09 	9.596477e+01 	8.351105e+38 	
1.309062e+06 	1.834459e+03 	1.082938e+09 	9.690420e+01 	8.349801e+38 	
1.309118e+06 	1.816502e+03 	1.081751e+09 	9.785277e+01 	8.348490e+38 	
1.309174e+06 	1.798720e+03 	1.080566e+09 	9.881060e+01 	8.347171e+38 	
1.309231e+06 	1.781113e+03 	1.079384e+09 	9.977776e+01 	8.345844e+38 	
1.309288e+06 	1.763678e+03 	1.078203e+09 	1.007543e+02 	8.344510e+38 	
1.309345e+06 	1.746414e+03 	1.077025e+09 	1.017404e+02 	8.343168e+38 	
1.309402e+06 	1.729318e+03 	1.075849e+09 	1.027362e+02 	8.341818e+38 	
1.309460e+06 	1.712391e+03 	1.074675e+09 	1.037416e+02 	8.340461e+38 	
1.309518e+06 	1.695628e+03 	1.073503e+09 	1.047568e+02 	8.339096e+38 	
1.309576e+06 	1.679030e+03 	1.072333e+09 	1.057819e+02 	8.337722e+38 	
1.309635e+06 	1.662594e+03 	1.071165e+09 	1.068169e+02 	8.336341e+38 	
1.309693e+06 	1.646320e+03 	1.070000e+09 	1.078621e+02 	8.334952e+38 	
1.309752e+06 	1.630204e+03 	1.068836e+09 	1.089174e+02 	8.333555e+38 	
1.309811e+06 	1.614246e+03 	1.067675e+09 	1.099831e+02 	8.332150e+38 	
1.309871e+06 	1.598445e+03 	1.066515e+09 	1.110591e+02 	8.330736e+38 	
1.309930e+06 	1.582798e+03 	1.065358e+09 	1.121455e+02 	8.329315e+38 	
1.309990e+06 	1.567304e+03 	1.064202e+09 	1.132426e+02 	8.327885e+38 	
1.310051e+06 	1.551962e+03 	1.063049e+09 	1.143503e+02 	8.326447e+38 	
1.310111e+06 	1.536770e+03 	1.061897e+09 	1.154688e+02 	8.325001e+38 	
1.310172e+06 	1.521727e+03 	1.060747e+09 	1.165982e+02 	8.323546e+38 	
1.310233e+06 	1.506831e+03 	1.059600e+09 	1.177386e+02 	8.322083e+38 	
1.310294e+06 	1.492081e+03 	1.058454e+09 	1.188901e+02 	8.320612e+38 	
1.310356e+06 	1.477475e+03 	1.057310e+09 	1.200528e+02 	8.319132e+38 	
1.310418e+06 	1.463013e+03 	1.056168e+09 	1.212268e+02 	8.317644e+38 	
1.310480e+06 	1.448692e+03 	1.055027e+09 	1.224122e+02 	8.316147e+38 	
1.310543e+06 	1.434511e+03 	1.053889e+09 	1.236092e+02 	8.314641e+38 	
1.310605e+06 	1.420468e+03 	1.052753e+09 	1.248178e+02 	8.313127e+38 	
1.310668e+06 	1.406564e+03 	1.051618e+09 	1.260381e+02 	8.311604e+38 	
1.310732e+06 	1.392795e+03 	1.050485e+09 	1.272703e+02 	8.310072e+38 	
1.310795e+06 	1.379161e+03 	1.049354e+09 	1.285146e+02 	8.308532e+38 	
1.310859e+06 	1.365661e+03 	1.048224e+09 	1.297709e+02 	8.306983e+38 	
1.310924e+06 	1.352293e+03 	1.047097e+09 	1.310394e+02 	8.305425e+38 	
1.310988e+06 	1.339056e+03 	1.045971e+09 	1.323202e+02 	8.303858e+38 	
1.311053e+06 	1.325948e+03 	1.044847e+09 	1.336135e+02 	8.302282e+38 	
1.311118e+06 	1.312968e+03 	1.043724e+09 	1.349194e+02 	8.300697e+38 	
1.311184e+06 	1.300116e+03 	1.042603e+09 	1.362380e+02 	8.299103e+38 	
1.311250e+06 	1.287389e+03 	1.041484e+09 	1.375694e+02 	8.297500e+38 	
1.311316e+06 	1.274787e+03 	1.040367e+09 	1.389137e+02 	8.295887e+38 	
1.311382e+06 	1.262309e+03 	1.039251e+09 	1.402711e+02 	8.294266e+38 	
1.311449e+06 	1.249952e+03 	1.038137e+09 	1.416416e+02 	8.292635e+38 	
1.311516e+06 	1.237717e+03 	1.037024e+09 	1.430255e+02 	8.290995e+38 	
1.311583e+06 	1.225601e+03 	1.035913e+09 	1.444228e+02 	8.289345e+38 	
