r (cm)      	rho (g/cm3) 	T (K)       	u (cm/s)    	L* (erg/s)  			 Edot= 7.498984e+39
9.999871e+05 	7.110276e+02 	1.630353e+09 	1.083432e+03 	9.087947e+38 	
1.000935e+06 	7.049787e+02 	1.626643e+09 	1.090410e+03 	9.076751e+38 	
1.001884e+06 	6.989813e+02 	1.622940e+09 	1.097430e+03 	9.065570e+38 	
1.002836e+06 	6.930349e+02 	1.619245e+09 	1.104493e+03 	9.054406e+38 	
1.003789e+06 	6.871391e+02 	1.615557e+09 	1.111600e+03 	9.043257e+38 	
1.004745e+06 	6.812935e+02 	1.611877e+09 	1.118750e+03 	9.032124e+38 	
1.005702e+06 	6.754975e+02 	1.608204e+09 	1.125944e+03 	9.021007e+38 	
1.006661e+06 	6.697509e+02 	1.604538e+09 	1.133181e+03 	9.009905e+38 	
1.007623e+06 	6.640532e+02 	1.600880e+09 	1.140462e+03 	8.998819e+38 	
1.008586e+06 	6.584039e+02 	1.597229e+09 	1.147788e+03 	8.987749e+38 	
1.009552e+06 	6.528027e+02 	1.593586e+09 	1.155159e+03 	8.976695e+38 	
1.010520e+06 	6.472492e+02 	1.589950e+09 	1.162574e+03 	8.965657e+38 	
1.011489e+06 	6.417429e+02 	1.586321e+09 	1.170034e+03 	8.954635e+38 	
1.012461e+06 	6.362835e+02 	1.582700e+09 	1.177540e+03 	8.943629e+38 	
1.013435e+06 	6.308704e+02 	1.579085e+09 	1.185091e+03 	8.932639e+38 	
1.014410e+06 	6.255035e+02 	1.575479e+09 	1.192689e+03 	8.921664e+38 	
1.015388e+06 	6.201822e+02 	1.571879e+09 	1.200332e+03 	8.910705e+38 	
1.016368e+06 	6.149061e+02 	1.568287e+09 	1.208022e+03 	8.899761e+38 	
1.017349e+06 	6.096750e+02 	1.564702e+09 	1.215759e+03 	8.888833e+38 	
1.018333e+06 	6.044884e+02 	1.561125e+09 	1.223543e+03 	8.877921e+38 	
1.019319e+06 	5.993458e+02 	1.557554e+09 	1.231374e+03 	8.867024e+38 	
1.020307e+06 	5.942471e+02 	1.553991e+09 	1.239252e+03 	8.856144e+38 	
1.021297e+06 	5.891917e+02 	1.550435e+09 	1.247178e+03 	8.845279e+38 	
1.022290e+06 	5.841793e+02 	1.546886e+09 	1.255152e+03 	8.834431e+38 	
1.023284e+06 	5.792095e+02 	1.543345e+09 	1.263175e+03 	8.823597e+38 	
1.024280e+06 	5.742821e+02 	1.539811e+09 	1.271246e+03 	8.812780e+38 	
1.025278e+06 	5.693965e+02 	1.536284e+09 	1.279367e+03 	8.801978e+38 	
1.026279e+06 	5.645525e+02 	1.532764e+09 	1.287536e+03 	8.791191e+38 	
1.027281e+06 	5.597497e+02 	1.529251e+09 	1.295755e+03 	8.780420e+38 	
1.028286e+06 	5.549878e+02 	1.525746e+09 	1.304024e+03 	8.769665e+38 	
1.029293e+06 	5.502664e+02 	1.522248e+09 	1.312342e+03 	8.758925e+38 	
1.030301e+06 	5.455852e+02 	1.518757e+09 	1.320711e+03 	8.748201e+38 	
1.031312e+06 	5.409438e+02 	1.515273e+09 	1.329131e+03 	8.737493e+38 	
1.032325e+06 	5.363418e+02 	1.511796e+09 	1.337601e+03 	8.726800e+38 	
1.033340e+06 	5.317790e+02 	1.508326e+09 	1.346123e+03 	8.716123e+38 	
1.034358e+06 	5.272551e+02 	1.504863e+09 	1.354696e+03 	8.705462e+38 	
1.035377e+06 	5.227696e+02 	1.501408e+09 	1.363321e+03 	8.694816e+38 	
1.036398e+06 	5.183223e+02 	1.497959e+09 	1.371998e+03 	8.684185e+38 	
1.037422e+06 	5.139128e+02 	1.494518e+09 	1.380727e+03 	8.673570e+38 	
1.038448e+06 	5.095408e+02 	1.491083e+09 	1.389509e+03 	8.662970e+38 	
1.039475e+06 	5.052060e+02 	1.487656e+09 	1.398344e+03 	8.652386e+38 	
1.040505e+06 	5.009081e+02 	1.484236e+09 	1.407233e+03 	8.641817e+38 	
1.041537e+06 	4.966468e+02 	1.480823e+09 	1.416174e+03 	8.631264e+38 	
1.042572e+06 	4.924217e+02 	1.477417e+09 	1.425170e+03 	8.620727e+38 	
1.043608e+06 	4.882326e+02 	1.474017e+09 	1.434220e+03 	8.610205e+38 	
1.044647e+06 	4.840790e+02 	1.470625e+09 	1.443324e+03 	8.599698e+38 	
1.045687e+06 	4.799609e+02 	1.467240e+09 	1.452484e+03 	8.589207e+38 	
1.046730e+06 	4.758777e+02 	1.463862e+09 	1.461698e+03 	8.578732e+38 	
1.047775e+06 	4.718293e+02 	1.460491e+09 	1.470968e+03 	8.568271e+38 	
1.048822e+06 	4.678154e+02 	1.457126e+09 	1.480294e+03 	8.557826e+38 	
1.049871e+06 	4.638356e+02 	1.453769e+09 	1.489675e+03 	8.547396e+38 	
1.050923e+06 	4.598896e+02 	1.450419e+09 	1.499113e+03 	8.536981e+38 	
1.051977e+06 	4.559772e+02 	1.447075e+09 	1.508608e+03 	8.526582e+38 	
1.053032e+06 	4.520981e+02 	1.443739e+09 	1.518160e+03 	8.516199e+38 	
1.054091e+06 	4.482520e+02 	1.440409e+09 	1.527769e+03 	8.505831e+38 	
1.055151e+06 	4.444386e+02 	1.437086e+09 	1.537435e+03 	8.495479e+38 	
1.056213e+06 	4.406577e+02 	1.433771e+09 	1.547160e+03 	8.485141e+38 	
1.057278e+06 	4.369089e+02 	1.430462e+09 	1.556944e+03 	8.474819e+38 	
1.058344e+06 	4.331920e+02 	1.427159e+09 	1.566786e+03 	8.464512e+38 	
1.059413e+06 	4.295068e+02 	1.423864e+09 	1.576687e+03 	8.454220e+38 	
1.060485e+06 	4.258529e+02 	1.420576e+09 	1.586647e+03 	8.443944e+38 	
1.061558e+06 	4.222300e+02 	1.417294e+09 	1.596667e+03 	8.433682e+38 	
1.062634e+06 	4.186380e+02 	1.414020e+09 	1.606747e+03 	8.423436e+38 	
1.063711e+06 	4.150766e+02 	1.410752e+09 	1.616887e+03 	8.413206e+38 	
1.064791e+06 	4.115454e+02 	1.407491e+09 	1.627088e+03 	8.402991e+38 	
1.065874e+06 	4.080443e+02 	1.404236e+09 	1.637350e+03 	8.392791e+38 	
1.066958e+06 	4.045730e+02 	1.400989e+09 	1.647673e+03 	8.382606e+38 	
1.068045e+06 	4.011312e+02 	1.397748e+09 	1.658059e+03 	8.372436e+38 	
1.069134e+06 	3.977187e+02 	1.394514e+09 	1.668506e+03 	8.362282e+38 	
1.070225e+06 	3.943352e+02 	1.391287e+09 	1.679016e+03 	8.352142e+38 	
1.071318e+06 	3.909805e+02 	1.388066e+09 	1.689588e+03 	8.342017e+38 	
1.072414e+06 	3.876543e+02 	1.384852e+09 	1.700224e+03 	8.331908e+38 	
1.073512e+06 	3.843565e+02 	1.381645e+09 	1.710923e+03 	8.321814e+38 	
1.074612e+06 	3.810867e+02 	1.378445e+09 	1.721686e+03 	8.311735e+38 	
1.075715e+06 	3.778447e+02 	1.375251e+09 	1.732513e+03 	8.301671e+38 	
1.076820e+06 	3.746302e+02 	1.372064e+09 	1.743405e+03 	8.291623e+38 	
1.077927e+06 	3.714432e+02 	1.368884e+09 	1.754362e+03 	8.281589e+38 	
1.079036e+06 	3.682832e+02 	1.365710e+09 	1.765384e+03 	8.271571e+38 	
1.080147e+06 	3.651502e+02 	1.362543e+09 	1.776472e+03 	8.261567e+38 	
1.081261e+06 	3.620437e+02 	1.359383e+09 	1.787626e+03 	8.251579e+38 	
1.082377e+06 	3.589638e+02 	1.356229e+09 	1.798847e+03 	8.241605e+38 	
1.083496e+06 	3.559100e+02 	1.353082e+09 	1.810134e+03 	8.231646e+38 	
1.084616e+06 	3.528822e+02 	1.349941e+09 	1.821488e+03 	8.221702e+38 	
1.085739e+06 	3.498801e+02 	1.346807e+09 	1.832910e+03 	8.211774e+38 	
1.086865e+06 	3.469036e+02 	1.343680e+09 	1.844400e+03 	8.201860e+38 	
1.087992e+06 	3.439524e+02 	1.340559e+09 	1.855958e+03 	8.191962e+38 	
1.089122e+06 	3.410263e+02 	1.337445e+09 	1.867585e+03 	8.182078e+38 	
1.090254e+06 	3.381251e+02 	1.334338e+09 	1.879281e+03 	8.172210e+38 	
1.091389e+06 	3.352486e+02 	1.331236e+09 	1.891047e+03 	8.162356e+38 	
1.092526e+06 	3.323966e+02 	1.328142e+09 	1.902882e+03 	8.152517e+38 	
1.093665e+06 	3.295688e+02 	1.325054e+09 	1.914788e+03 	8.142693e+38 	
1.094806e+06 	3.267651e+02 	1.321973e+09 	1.926765e+03 	8.132884e+38 	
1.095950e+06 	3.239852e+02 	1.318898e+09 	1.938812e+03 	8.123089e+38 	
1.097096e+06 	3.212290e+02 	1.315829e+09 	1.950931e+03 	8.113310e+38 	
1.098245e+06 	3.184962e+02 	1.312767e+09 	1.963122e+03 	8.103545e+38 	
1.099396e+06 	3.157867e+02 	1.309711e+09 	1.975385e+03 	8.093796e+38 	
1.100549e+06 	3.131003e+02 	1.306662e+09 	1.987721e+03 	8.084061e+38 	
1.101705e+06 	3.104366e+02 	1.303620e+09 	2.000129e+03 	8.074341e+38 	
1.102863e+06 	3.077957e+02 	1.300584e+09 	2.012612e+03 	8.064636e+38 	
1.104023e+06 	3.051772e+02 	1.297554e+09 	2.025168e+03 	8.054946e+38 	
1.105186e+06 	3.025810e+02 	1.294530e+09 	2.037799e+03 	8.045270e+38 	
1.106351e+06 	3.000069e+02 	1.291514e+09 	2.050505e+03 	8.035609e+38 	
1.107518e+06 	2.974546e+02 	1.288503e+09 	2.063285e+03 	8.025962e+38 	
1.108688e+06 	2.949241e+02 	1.285499e+09 	2.076141e+03 	8.016330e+38 	
1.109860e+06 	2.924151e+02 	1.282501e+09 	2.089074e+03 	8.006713e+38 	
1.111035e+06 	2.899275e+02 	1.279510e+09 	2.102082e+03 	7.997112e+38 	
1.112212e+06 	2.874610e+02 	1.276525e+09 	2.115167e+03 	7.987524e+38 	
1.113391e+06 	2.850155e+02 	1.273546e+09 	2.128330e+03 	7.977952e+38 	
1.114573e+06 	2.825908e+02 	1.270574e+09 	2.141571e+03 	7.968394e+38 	
1.115757e+06 	2.801868e+02 	1.267608e+09 	2.154890e+03 	7.958850e+38 	
1.116944e+06 	2.778031e+02 	1.264648e+09 	2.168287e+03 	7.949322e+38 	
1.118133e+06 	2.754398e+02 	1.261694e+09 	2.181763e+03 	7.939807e+38 	
1.119324e+06 	2.730966e+02 	1.258747e+09 	2.195319e+03 	7.930307e+38 	
1.120518e+06 	2.707733e+02 	1.255806e+09 	2.208955e+03 	7.920822e+38 	
1.121714e+06 	2.684697e+02 	1.252872e+09 	2.222671e+03 	7.911351e+38 	
1.122913e+06 	2.661858e+02 	1.249944e+09 	2.236468e+03 	7.901896e+38 	
1.124114e+06 	2.639213e+02 	1.247021e+09 	2.250346e+03 	7.892455e+38 	
1.125318e+06 	2.616761e+02 	1.244106e+09 	2.264306e+03 	7.883028e+38 	
1.126524e+06 	2.594499e+02 	1.241196e+09 	2.278348e+03 	7.873616e+38 	
1.127732e+06 	2.572427e+02 	1.238293e+09 	2.292473e+03 	7.864218e+38 	
1.128943e+06 	2.550543e+02 	1.235395e+09 	2.306681e+03 	7.854835e+38 	
1.130157e+06 	2.528845e+02 	1.232504e+09 	2.320972e+03 	7.845466e+38 	
1.131373e+06 	2.507332e+02 	1.229620e+09 	2.335348e+03 	7.836111e+38 	
1.132591e+06 	2.486001e+02 	1.226741e+09 	2.349808e+03 	7.826771e+38 	
1.133812e+06 	2.464852e+02 	1.223869e+09 	2.364353e+03 	7.817446e+38 	
1.135035e+06 	2.443883e+02 	1.221002e+09 	2.378983e+03 	7.808135e+38 	
1.136261e+06 	2.423092e+02 	1.218142e+09 	2.393699e+03 	7.798838e+38 	
1.137489e+06 	2.402479e+02 	1.215288e+09 	2.408502e+03 	7.789557e+38 	
1.138720e+06 	2.382040e+02 	1.212440e+09 	2.423392e+03 	7.780289e+38 	
1.139953e+06 	2.361776e+02 	1.209598e+09 	2.438369e+03 	7.771036e+38 	
1.141189e+06 	2.341683e+02 	1.206763e+09 	2.453434e+03 	7.761797e+38 	
1.142427e+06 	2.321762e+02 	1.203933e+09 	2.468587e+03 	7.752572e+38 	
1.143668e+06 	2.302010e+02 	1.201110e+09 	2.483829e+03 	7.743361e+38 	
1.144911e+06 	2.282427e+02 	1.198292e+09 	2.499161e+03 	7.734165e+38 	
1.146157e+06 	2.263010e+02 	1.195481e+09 	2.514582e+03 	7.724983e+38 	
1.147406e+06 	2.243758e+02 	1.192675e+09 	2.530093e+03 	7.715815e+38 	
1.148657e+06 	2.224669e+02 	1.189876e+09 	2.545695e+03 	7.706662e+38 	
1.149910e+06 	2.205744e+02 	1.187083e+09 	2.561389e+03 	7.697524e+38 	
1.151166e+06 	2.186979e+02 	1.184296e+09 	2.577174e+03 	7.688399e+38 	
1.152424e+06 	2.168374e+02 	1.181514e+09 	2.593052e+03 	7.679289e+38 	
1.153685e+06 	2.149927e+02 	1.178739e+09 	2.609023e+03 	7.670193e+38 	
1.154949e+06 	2.131637e+02 	1.175970e+09 	2.625087e+03 	7.661111e+38 	
1.156215e+06 	2.113503e+02 	1.173207e+09 	2.641245e+03 	7.652042e+38 	
1.157484e+06 	2.095523e+02 	1.170449e+09 	2.657498e+03 	7.642989e+38 	
1.158755e+06 	2.077696e+02 	1.167698e+09 	2.673845e+03 	7.633949e+38 	
1.160029e+06 	2.060020e+02 	1.164952e+09 	2.690287e+03 	7.624923e+38 	
1.161306e+06 	2.042495e+02 	1.162213e+09 	2.706826e+03 	7.615912e+38 	
1.162585e+06 	2.025119e+02 	1.159479e+09 	2.723461e+03 	7.606915e+38 	
1.163866e+06 	2.007891e+02 	1.156752e+09 	2.740193e+03 	7.597933e+38 	
1.165150e+06 	1.990809e+02 	1.154030e+09 	2.757023e+03 	7.588964e+38 	
1.166437e+06 	1.973873e+02 	1.151314e+09 	2.773951e+03 	7.580009e+38 	
1.167727e+06 	1.957081e+02 	1.148604e+09 	2.790978e+03 	7.571068e+38 	
1.169019e+06 	1.940432e+02 	1.145900e+09 	2.808104e+03 	7.562141e+38 	
1.170313e+06 	1.923924e+02 	1.143202e+09 	2.825330e+03 	7.553228e+38 	
1.171610e+06 	1.907557e+02 	1.140509e+09 	2.842656e+03 	7.544330e+38 	
1.172910e+06 	1.891329e+02 	1.137823e+09 	2.860082e+03 	7.535445e+38 	
1.174213e+06 	1.875239e+02 	1.135142e+09 	2.877610e+03 	7.526574e+38 	
1.175518e+06 	1.859286e+02 	1.132467e+09 	2.895240e+03 	7.517718e+38 	
1.176826e+06 	1.843468e+02 	1.129798e+09 	2.912973e+03 	7.508875e+38 	
1.178136e+06 	1.827785e+02 	1.127135e+09 	2.930809e+03 	7.500047e+38 	
1.179449e+06 	1.812236e+02 	1.124477e+09 	2.948749e+03 	7.491232e+38 	
1.180765e+06 	1.796819e+02 	1.121826e+09 	2.966793e+03 	7.482431e+38 	
1.182083e+06 	1.781533e+02 	1.119180e+09 	2.984941e+03 	7.473644e+38 	
1.183404e+06 	1.766377e+02 	1.116539e+09 	3.003196e+03 	7.464871e+38 	
1.184728e+06 	1.751350e+02 	1.113905e+09 	3.021556e+03 	7.456111e+38 	
1.186054e+06 	1.736451e+02 	1.111276e+09 	3.040022e+03 	7.447366e+38 	
1.187383e+06 	1.721678e+02 	1.108653e+09 	3.058596e+03 	7.438634e+38 	
1.188715e+06 	1.707032e+02 	1.106036e+09 	3.077277e+03 	7.429917e+38 	
1.190049e+06 	1.692510e+02 	1.103424e+09 	3.096066e+03 	7.421213e+38 	
1.191386e+06 	1.678111e+02 	1.100818e+09 	3.114965e+03 	7.412523e+38 	
1.192726e+06 	1.663835e+02 	1.098218e+09 	3.133974e+03 	7.403847e+38 	
1.194068e+06 	1.649680e+02 	1.095624e+09 	3.153092e+03 	7.395185e+38 	
1.195414e+06 	1.635646e+02 	1.093035e+09 	3.172322e+03 	7.386536e+38 	
1.196761e+06 	1.621731e+02 	1.090452e+09 	3.191662e+03 	7.377900e+38 	
1.198112e+06 	1.607935e+02 	1.087874e+09 	3.211115e+03 	7.369279e+38 	
1.199465e+06 	1.594256e+02 	1.085302e+09 	3.230680e+03 	7.360671e+38 	
1.200821e+06 	1.580693e+02 	1.082736e+09 	3.250358e+03 	7.352078e+38 	
1.202180e+06 	1.567246e+02 	1.080175e+09 	3.270149e+03 	7.343498e+38 	
1.203542e+06 	1.553913e+02 	1.077620e+09 	3.290056e+03 	7.334931e+38 	
1.204906e+06 	1.540693e+02 	1.075071e+09 	3.310077e+03 	7.326379e+38 	
1.206273e+06 	1.527586e+02 	1.072527e+09 	3.330215e+03 	7.317840e+38 	
1.207643e+06 	1.514591e+02 	1.069988e+09 	3.350468e+03 	7.309314e+38 	
1.209015e+06 	1.501706e+02 	1.067456e+09 	3.370839e+03 	7.300802e+38 	
1.210390e+06 	1.488931e+02 	1.064928e+09 	3.391327e+03 	7.292304e+38 	
1.211768e+06 	1.476264e+02 	1.062407e+09 	3.411934e+03 	7.283819e+38 	
1.213149e+06 	1.463705e+02 	1.059891e+09 	3.432659e+03 	7.275348e+38 	
1.214533e+06 	1.451253e+02 	1.057380e+09 	3.453503e+03 	7.266890e+38 	
1.215919e+06 	1.438907e+02 	1.054875e+09 	3.474468e+03 	7.258446e+38 	
1.217308e+06 	1.426666e+02 	1.052375e+09 	3.495554e+03 	7.250016e+38 	
1.218700e+06 	1.414529e+02 	1.049881e+09 	3.516761e+03 	7.241599e+38 	
1.220095e+06 	1.402495e+02 	1.047392e+09 	3.538091e+03 	7.233196e+38 	
1.221492e+06 	1.390564e+02 	1.044909e+09 	3.559543e+03 	7.224806e+38 	
1.222893e+06 	1.378734e+02 	1.042432e+09 	3.581119e+03 	7.216429e+38 	
1.224296e+06 	1.367005e+02 	1.039959e+09 	3.602820e+03 	7.208066e+38 	
1.225702e+06 	1.355375e+02 	1.037493e+09 	3.624645e+03 	7.199716e+38 	
1.227110e+06 	1.343845e+02 	1.035031e+09 	3.646595e+03 	7.191380e+38 	
1.228522e+06 	1.332412e+02 	1.032575e+09 	3.668672e+03 	7.183057e+38 	
1.229937e+06 	1.321077e+02 	1.030125e+09 	3.690875e+03 	7.174748e+38 	
1.231354e+06 	1.309838e+02 	1.027679e+09 	3.713206e+03 	7.166452e+38 	
1.232774e+06 	1.298695e+02 	1.025240e+09 	3.735666e+03 	7.158169e+38 	
1.234197e+06 	1.287647e+02 	1.022805e+09 	3.758255e+03 	7.149900e+38 	
1.235623e+06 	1.276693e+02 	1.020376e+09 	3.780974e+03 	7.141645e+38 	
1.237052e+06 	1.265832e+02 	1.017953e+09 	3.803823e+03 	7.133402e+38 	
1.238483e+06 	1.255063e+02 	1.015534e+09 	3.826803e+03 	7.125172e+38 	
1.239918e+06 	1.244386e+02 	1.013121e+09 	3.849915e+03 	7.116956e+38 	
1.241355e+06 	1.233799e+02 	1.010714e+09 	3.873159e+03 	7.108753e+38 	
1.242795e+06 	1.223303e+02 	1.008311e+09 	3.896536e+03 	7.100564e+38 	
1.244238e+06 	1.212896e+02 	1.005914e+09 	3.920048e+03 	7.092388e+38 	
1.245684e+06 	1.202578e+02 	1.003523e+09 	3.943694e+03 	7.084225e+38 	
1.247133e+06 	1.192347e+02 	1.001136e+09 	3.967476e+03 	7.076075e+38 	
1.248585e+06 	1.182204e+02 	9.987552e+08 	3.991394e+03 	7.067939e+38 	
1.250040e+06 	1.172146e+02 	9.963793e+08 	4.015450e+03 	7.059816e+38 	
1.251497e+06 	1.162175e+02 	9.940087e+08 	4.039643e+03 	7.051706e+38 	
1.252958e+06 	1.152288e+02 	9.916434e+08 	4.063974e+03 	7.043608e+38 	
1.254421e+06 	1.142485e+02 	9.892833e+08 	4.088444e+03 	7.035524e+38 	
1.255888e+06 	1.132766e+02 	9.869284e+08 	4.113055e+03 	7.027453e+38 	
1.257357e+06 	1.123129e+02 	9.845787e+08 	4.137805e+03 	7.019396e+38 	
1.258830e+06 	1.113574e+02 	9.822343e+08 	4.162698e+03 	7.011351e+38 	
1.260305e+06 	1.104101e+02 	9.798950e+08 	4.187732e+03 	7.003320e+38 	
1.261783e+06 	1.094708e+02 	9.775610e+08 	4.212910e+03 	6.995302e+38 	
1.263264e+06 	1.085395e+02 	9.752321e+08 	4.238232e+03 	6.987297e+38 	
1.264748e+06 	1.076161e+02 	9.729084e+08 	4.263698e+03 	6.979305e+38 	
1.266235e+06 	1.067006e+02 	9.705899e+08 	4.289310e+03 	6.971326e+38 	
1.267726e+06 	1.057929e+02 	9.682765e+08 	4.315068e+03 	6.963359e+38 	
1.269219e+06 	1.048929e+02 	9.659683e+08 	4.340972e+03 	6.955406e+38 	
1.270715e+06 	1.040005e+02 	9.636652e+08 	4.367025e+03 	6.947465e+38 	
1.272214e+06 	1.031158e+02 	9.613672e+08 	4.393225e+03 	6.939538e+38 	
1.273716e+06 	1.022386e+02 	9.590743e+08 	4.419575e+03 	6.931624e+38 	
1.275221e+06 	1.013688e+02 	9.567865e+08 	4.446075e+03 	6.923723e+38 	
1.276729e+06 	1.005064e+02 	9.545038e+08 	4.472726e+03 	6.915835e+38 	
1.278240e+06 	9.965139e+01 	9.522263e+08 	4.499530e+03 	6.907959e+38 	
1.279754e+06 	9.880363e+01 	9.499537e+08 	4.526485e+03 	6.900097e+38 	
1.281272e+06 	9.796309e+01 	9.476863e+08 	4.553594e+03 	6.892247e+38 	
1.282792e+06 	9.712969e+01 	9.454239e+08 	4.580858e+03 	6.884410e+38 	
1.284315e+06 	9.630339e+01 	9.431666e+08 	4.608276e+03 	6.876586e+38 	
1.285841e+06 	9.548411e+01 	9.409143e+08 	4.635850e+03 	6.868774e+38 	
1.287371e+06 	9.467181e+01 	9.386670e+08 	4.663581e+03 	6.860976e+38 	
1.288903e+06 	9.386641e+01 	9.364247e+08 	4.691469e+03 	6.853191e+38 	
1.290439e+06 	9.306787e+01 	9.341874e+08 	4.719516e+03 	6.845418e+38 	
1.291977e+06 	9.227612e+01 	9.319551e+08 	4.747722e+03 	6.837658e+38 	
1.293519e+06 	9.149111e+01 	9.297278e+08 	4.776089e+03 	6.829911e+38 	
1.295063e+06 	9.071277e+01 	9.275055e+08 	4.804616e+03 	6.822177e+38 	
1.296611e+06 	8.994106e+01 	9.252882e+08 	4.833306e+03 	6.814455e+38 	
1.298162e+06 	8.917591e+01 	9.230759e+08 	4.862158e+03 	6.806746e+38 	
1.299716e+06 	8.841727e+01 	9.208684e+08 	4.891173e+03 	6.799049e+38 	
1.301273e+06 	8.766508e+01 	9.186659e+08 	4.920353e+03 	6.791366e+38 	
1.302834e+06 	8.691929e+01 	9.164684e+08 	4.949699e+03 	6.783695e+38 	
1.304397e+06 	8.617985e+01 	9.142757e+08 	4.979210e+03 	6.776037e+38 	
1.305963e+06 	8.544670e+01 	9.120880e+08 	5.008889e+03 	6.768391e+38 	
1.307533e+06 	8.471979e+01 	9.099051e+08 	5.038736e+03 	6.760758e+38 	
1.309106e+06 	8.399905e+01 	9.077272e+08 	5.068753e+03 	6.753138e+38 	
1.310682e+06 	8.328446e+01 	9.055542e+08 	5.098939e+03 	6.745530e+38 	
1.312261e+06 	8.257594e+01 	9.033860e+08 	5.129296e+03 	6.737935e+38 	
1.313843e+06 	8.187344e+01 	9.012227e+08 	5.159824e+03 	6.730352e+38 	
1.315428e+06 	8.117693e+01 	8.990642e+08 	5.190525e+03 	6.722782e+38 	
1.317017e+06 	8.048634e+01 	8.969106e+08 	5.221400e+03 	6.715224e+38 	
1.318608e+06 	7.980162e+01 	8.947618e+08 	5.252449e+03 	6.707679e+38 	
1.320203e+06 	7.912273e+01 	8.926178e+08 	5.283673e+03 	6.700147e+38 	
1.321801e+06 	7.844961e+01 	8.904787e+08 	5.315074e+03 	6.692627e+38 	
1.323403e+06 	7.778223e+01 	8.883443e+08 	5.346652e+03 	6.685119e+38 	
1.325007e+06 	7.712051e+01 	8.862148e+08 	5.378409e+03 	6.677624e+38 	
1.326615e+06 	7.646443e+01 	8.840900e+08 	5.410345e+03 	6.670142e+38 	
1.328226e+06 	7.581393e+01 	8.819701e+08 	5.442461e+03 	6.662671e+38 	
1.329840e+06 	7.516897e+01 	8.798549e+08 	5.474759e+03 	6.655213e+38 	
1.331457e+06 	7.452949e+01 	8.777444e+08 	5.507238e+03 	6.647768e+38 	
1.333078e+06 	7.389545e+01 	8.756387e+08 	5.539900e+03 	6.640335e+38 	
1.334701e+06 	7.326680e+01 	8.735378e+08 	5.572746e+03 	6.632914e+38 	
1.336328e+06 	7.264350e+01 	8.714415e+08 	5.605777e+03 	6.625506e+38 	
1.337959e+06 	7.202551e+01 	8.693500e+08 	5.638995e+03 	6.618110e+38 	
1.339592e+06 	7.141277e+01 	8.672632e+08 	5.672400e+03 	6.610727e+38 	
1.341229e+06 	7.080525e+01 	8.651812e+08 	5.705992e+03 	6.603356e+38 	
1.342869e+06 	7.020289e+01 	8.631038e+08 	5.739774e+03 	6.595997e+38 	
1.344512e+06 	6.960566e+01 	8.610311e+08 	5.773746e+03 	6.588650e+38 	
1.346159e+06 	6.901351e+01 	8.589631e+08 	5.807909e+03 	6.581315e+38 	
1.347809e+06 	6.842639e+01 	8.568997e+08 	5.842264e+03 	6.573993e+38 	
1.349462e+06 	6.784427e+01 	8.548410e+08 	5.876812e+03 	6.566683e+38 	
1.351119e+06 	6.726711e+01 	8.527869e+08 	5.911553e+03 	6.559385e+38 	
1.352778e+06 	6.669485e+01 	8.507375e+08 	5.946490e+03 	6.552100e+38 	
1.354442e+06 	6.612746e+01 	8.486927e+08 	5.981624e+03 	6.544827e+38 	
1.356108e+06 	6.556490e+01 	8.466525e+08 	6.016955e+03 	6.537566e+38 	
