r (cm)      	rho (g/cm3) 	T (K)       	u (cm/s)    	L* (erg/s)  			 Edot= 3.125983e+39
1.200000e+06 	1.604251e+04 	1.429396e+09 	1.276898e+01 	6.937010e+38 	
1.200035e+06 	1.588742e+04 	1.427310e+09 	1.289282e+01 	6.936614e+38 	
1.200069e+06 	1.573382e+04 	1.425230e+09 	1.301786e+01 	6.936215e+38 	
1.200103e+06 	1.558171e+04 	1.423155e+09 	1.314412e+01 	6.935815e+38 	
1.200138e+06 	1.543108e+04 	1.421087e+09 	1.327159e+01 	6.935413e+38 	
1.200173e+06 	1.528190e+04 	1.419024e+09 	1.340030e+01 	6.935009e+38 	
1.200207e+06 	1.513416e+04 	1.416967e+09 	1.353026e+01 	6.934603e+38 	
1.200242e+06 	1.498785e+04 	1.414915e+09 	1.366148e+01 	6.934196e+38 	
1.200277e+06 	1.484295e+04 	1.412870e+09 	1.379397e+01 	6.933786e+38 	
1.200312e+06 	1.469945e+04 	1.410830e+09 	1.392774e+01 	6.933374e+38 	
1.200347e+06 	1.455735e+04 	1.408795e+09 	1.406280e+01 	6.932961e+38 	
1.200382e+06 	1.441661e+04 	1.406766e+09 	1.419918e+01 	6.932545e+38 	
1.200417e+06 	1.427724e+04 	1.404743e+09 	1.433688e+01 	6.932127e+38 	
1.200452e+06 	1.413921e+04 	1.402726e+09 	1.447590e+01 	6.931708e+38 	
1.200487e+06 	1.400252e+04 	1.400714e+09 	1.461628e+01 	6.931286e+38 	
1.200522e+06 	1.386715e+04 	1.398708e+09 	1.475802e+01 	6.930863e+38 	
1.200558e+06 	1.373309e+04 	1.396707e+09 	1.490112e+01 	6.930437e+38 	
1.200593e+06 	1.360032e+04 	1.394712e+09 	1.504562e+01 	6.930009e+38 	
1.200629e+06 	1.346884e+04 	1.392723e+09 	1.519151e+01 	6.929579e+38 	
1.200664e+06 	1.333863e+04 	1.390739e+09 	1.533882e+01 	6.929147e+38 	
1.200700e+06 	1.320968e+04 	1.388760e+09 	1.548755e+01 	6.928713e+38 	
1.200735e+06 	1.308197e+04 	1.386787e+09 	1.563772e+01 	6.928277e+38 	
1.200771e+06 	1.295550e+04 	1.384820e+09 	1.578935e+01 	6.927839e+38 	
1.200807e+06 	1.283025e+04 	1.382857e+09 	1.594245e+01 	6.927399e+38 	
1.200843e+06 	1.270621e+04 	1.380901e+09 	1.609702e+01 	6.926956e+38 	
1.200879e+06 	1.258338e+04 	1.378949e+09 	1.625310e+01 	6.926512e+38 	
1.200915e+06 	1.246173e+04 	1.377003e+09 	1.641069e+01 	6.926065e+38 	
1.200951e+06 	1.234125e+04 	1.375063e+09 	1.656980e+01 	6.925616e+38 	
1.200987e+06 	1.222194e+04 	1.373127e+09 	1.673045e+01 	6.925165e+38 	
1.201023e+06 	1.210378e+04 	1.371198e+09 	1.689266e+01 	6.924711e+38 	
1.201059e+06 	1.198677e+04 	1.369273e+09 	1.705644e+01 	6.924256e+38 	
1.201096e+06 	1.187089e+04 	1.367354e+09 	1.722180e+01 	6.923798e+38 	
1.201132e+06 	1.175612e+04 	1.365440e+09 	1.738876e+01 	6.923338e+38 	
1.201169e+06 	1.164247e+04 	1.363531e+09 	1.755734e+01 	6.922875e+38 	
1.201205e+06 	1.152992e+04 	1.361627e+09 	1.772756e+01 	6.922411e+38 	
1.201242e+06 	1.141845e+04 	1.359729e+09 	1.789942e+01 	6.921944e+38 	
1.201279e+06 	1.130806e+04 	1.357836e+09 	1.807294e+01 	6.921474e+38 	
1.201316e+06 	1.119874e+04 	1.355948e+09 	1.824815e+01 	6.921003e+38 	
1.201352e+06 	1.109048e+04 	1.354065e+09 	1.842505e+01 	6.920529e+38 	
1.201389e+06 	1.098326e+04 	1.352188e+09 	1.860366e+01 	6.920053e+38 	
1.201426e+06 	1.087708e+04 	1.350315e+09 	1.878400e+01 	6.919574e+38 	
1.201464e+06 	1.077192e+04 	1.348448e+09 	1.896609e+01 	6.919093e+38 	
1.201501e+06 	1.066778e+04 	1.346586e+09 	1.914994e+01 	6.918609e+38 	
1.201538e+06 	1.056465e+04 	1.344729e+09 	1.933557e+01 	6.918124e+38 	
1.201575e+06 	1.046252e+04 	1.342877e+09 	1.952299e+01 	6.917635e+38 	
1.201613e+06 	1.036137e+04 	1.341029e+09 	1.971223e+01 	6.917145e+38 	
1.201650e+06 	1.026120e+04 	1.339187e+09 	1.990330e+01 	6.916651e+38 	
1.201688e+06 	1.016200e+04 	1.337350e+09 	2.009622e+01 	6.916156e+38 	
1.201726e+06 	1.006376e+04 	1.335518e+09 	2.029101e+01 	6.915658e+38 	
1.201763e+06 	9.966464e+03 	1.333691e+09 	2.048768e+01 	6.915157e+38 	
1.201801e+06 	9.870113e+03 	1.331869e+09 	2.068626e+01 	6.914654e+38 	
1.201839e+06 	9.774693e+03 	1.330052e+09 	2.088675e+01 	6.914148e+38 	
1.201877e+06 	9.680195e+03 	1.328240e+09 	2.108919e+01 	6.913640e+38 	
1.201915e+06 	9.586611e+03 	1.326432e+09 	2.129359e+01 	6.913129e+38 	
1.201953e+06 	9.493932e+03 	1.324630e+09 	2.149996e+01 	6.912615e+38 	
1.201992e+06 	9.402148e+03 	1.322832e+09 	2.170833e+01 	6.912099e+38 	
1.202030e+06 	9.311252e+03 	1.321039e+09 	2.191871e+01 	6.911581e+38 	
1.202069e+06 	9.221235e+03 	1.319251e+09 	2.213114e+01 	6.911060e+38 	
1.202107e+06 	9.132088e+03 	1.317468e+09 	2.234561e+01 	6.910536e+38 	
1.202146e+06 	9.043803e+03 	1.315690e+09 	2.256216e+01 	6.910009e+38 	
1.202184e+06 	8.956371e+03 	1.313916e+09 	2.278081e+01 	6.909480e+38 	
1.202223e+06 	8.869785e+03 	1.312148e+09 	2.300157e+01 	6.908948e+38 	
1.202262e+06 	8.784036e+03 	1.310383e+09 	2.322447e+01 	6.908413e+38 	
1.202301e+06 	8.699115e+03 	1.308624e+09 	2.344953e+01 	6.907876e+38 	
1.202340e+06 	8.615016e+03 	1.306870e+09 	2.367676e+01 	6.907336e+38 	
1.202379e+06 	8.531730e+03 	1.305120e+09 	2.390619e+01 	6.906793e+38 	
1.202419e+06 	8.449248e+03 	1.303374e+09 	2.413783e+01 	6.906247e+38 	
1.202458e+06 	8.367565e+03 	1.301634e+09 	2.437172e+01 	6.905699e+38 	
1.202497e+06 	8.286671e+03 	1.299898e+09 	2.460787e+01 	6.905147e+38 	
1.202537e+06 	8.206558e+03 	1.298166e+09 	2.484631e+01 	6.904593e+38 	
1.202577e+06 	8.127221e+03 	1.296439e+09 	2.508705e+01 	6.904036e+38 	
1.202616e+06 	8.048650e+03 	1.294717e+09 	2.533012e+01 	6.903476e+38 	
1.202656e+06 	7.970839e+03 	1.292999e+09 	2.557554e+01 	6.902914e+38 	
1.202696e+06 	7.893781e+03 	1.291286e+09 	2.582333e+01 	6.902348e+38 	
1.202736e+06 	7.817467e+03 	1.289578e+09 	2.607352e+01 	6.901779e+38 	
1.202776e+06 	7.741891e+03 	1.287874e+09 	2.632613e+01 	6.901208e+38 	
1.202816e+06 	7.667046e+03 	1.286174e+09 	2.658118e+01 	6.900633e+38 	
1.202857e+06 	7.592924e+03 	1.284479e+09 	2.683870e+01 	6.900056e+38 	
1.202897e+06 	7.519519e+03 	1.282789e+09 	2.709871e+01 	6.899476e+38 	
1.202938e+06 	7.446823e+03 	1.281102e+09 	2.736123e+01 	6.898892e+38 	
1.202978e+06 	7.374830e+03 	1.279421e+09 	2.762629e+01 	6.898306e+38 	
1.203019e+06 	7.303534e+03 	1.277743e+09 	2.789391e+01 	6.897716e+38 	
1.203060e+06 	7.232926e+03 	1.276070e+09 	2.816412e+01 	6.897124e+38 	
1.203101e+06 	7.163001e+03 	1.274402e+09 	2.843694e+01 	6.896528e+38 	
1.203142e+06 	7.093752e+03 	1.272738e+09 	2.871240e+01 	6.895929e+38 	
1.203183e+06 	7.025173e+03 	1.271078e+09 	2.899053e+01 	6.895327e+38 	
1.203224e+06 	6.957257e+03 	1.269422e+09 	2.927134e+01 	6.894722e+38 	
1.203265e+06 	6.889997e+03 	1.267771e+09 	2.955486e+01 	6.894114e+38 	
1.203307e+06 	6.823387e+03 	1.266124e+09 	2.984113e+01 	6.893503e+38 	
1.203348e+06 	6.757422e+03 	1.264481e+09 	3.013016e+01 	6.892888e+38 	
1.203390e+06 	6.692094e+03 	1.262843e+09 	3.042199e+01 	6.892270e+38 	
1.203432e+06 	6.627397e+03 	1.261208e+09 	3.071664e+01 	6.891649e+38 	
1.203474e+06 	6.563326e+03 	1.259578e+09 	3.101413e+01 	6.891025e+38 	
1.203516e+06 	6.499875e+03 	1.257953e+09 	3.131450e+01 	6.890397e+38 	
1.203558e+06 	6.437037e+03 	1.256331e+09 	3.161777e+01 	6.889766e+38 	
1.203600e+06 	6.374806e+03 	1.254714e+09 	3.192398e+01 	6.889132e+38 	
1.203642e+06 	6.313177e+03 	1.253100e+09 	3.223314e+01 	6.888495e+38 	
1.203685e+06 	6.252144e+03 	1.251491e+09 	3.254529e+01 	6.887854e+38 	
1.203727e+06 	6.191701e+03 	1.249886e+09 	3.286045e+01 	6.887209e+38 	
1.203770e+06 	6.131842e+03 	1.248285e+09 	3.317867e+01 	6.886562e+38 	
1.203813e+06 	6.072562e+03 	1.246688e+09 	3.349995e+01 	6.885910e+38 	
1.203855e+06 	6.013855e+03 	1.245095e+09 	3.382434e+01 	6.885256e+38 	
1.203899e+06 	5.955716e+03 	1.243507e+09 	3.415187e+01 	6.884598e+38 	
1.203942e+06 	5.898139e+03 	1.241922e+09 	3.448255e+01 	6.883936e+38 	
1.203985e+06 	5.841118e+03 	1.240341e+09 	3.481644e+01 	6.883271e+38 	
1.204028e+06 	5.784649e+03 	1.238764e+09 	3.515354e+01 	6.882603e+38 	
1.204072e+06 	5.728725e+03 	1.237191e+09 	3.549391e+01 	6.881931e+38 	
1.204115e+06 	5.673342e+03 	1.235623e+09 	3.583756e+01 	6.881255e+38 	
1.204159e+06 	5.618495e+03 	1.234058e+09 	3.618453e+01 	6.880576e+38 	
1.204203e+06 	5.564177e+03 	1.232497e+09 	3.653485e+01 	6.879893e+38 	
1.204247e+06 	5.510385e+03 	1.230940e+09 	3.688856e+01 	6.879207e+38 	
1.204291e+06 	5.457113e+03 	1.229387e+09 	3.724568e+01 	6.878516e+38 	
1.204335e+06 	5.404356e+03 	1.227838e+09 	3.760625e+01 	6.877823e+38 	
1.204380e+06 	5.352109e+03 	1.226292e+09 	3.797031e+01 	6.877125e+38 	
1.204424e+06 	5.300367e+03 	1.224751e+09 	3.833788e+01 	6.876424e+38 	
1.204469e+06 	5.249125e+03 	1.223213e+09 	3.870899e+01 	6.875719e+38 	
1.204513e+06 	5.198379e+03 	1.221679e+09 	3.908370e+01 	6.875010e+38 	
1.204558e+06 	5.148123e+03 	1.220149e+09 	3.946201e+01 	6.874297e+38 	
1.204603e+06 	5.098353e+03 	1.218623e+09 	3.984399e+01 	6.873581e+38 	
1.204648e+06 	5.049065e+03 	1.217100e+09 	4.022965e+01 	6.872861e+38 	
1.204694e+06 	5.000253e+03 	1.215581e+09 	4.061903e+01 	6.872137e+38 	
1.204739e+06 	4.951912e+03 	1.214066e+09 	4.101217e+01 	6.871409e+38 	
1.204785e+06 	4.904039e+03 	1.212555e+09 	4.140911e+01 	6.870677e+38 	
1.204830e+06 	4.856629e+03 	1.211047e+09 	4.180988e+01 	6.869941e+38 	
1.204876e+06 	4.809677e+03 	1.209543e+09 	4.221452e+01 	6.869202e+38 	
1.204922e+06 	4.763179e+03 	1.208042e+09 	4.262306e+01 	6.868458e+38 	
1.204968e+06 	4.717131e+03 	1.206546e+09 	4.303555e+01 	6.867710e+38 	
1.205014e+06 	4.671528e+03 	1.205052e+09 	4.345202e+01 	6.866959e+38 	
1.205061e+06 	4.626365e+03 	1.203563e+09 	4.387250e+01 	6.866203e+38 	
1.205107e+06 	4.581639e+03 	1.202077e+09 	4.429705e+01 	6.865443e+38 	
1.205154e+06 	4.537346e+03 	1.200595e+09 	4.472569e+01 	6.864679e+38 	
1.205201e+06 	4.493481e+03 	1.199116e+09 	4.515847e+01 	6.863911e+38 	
1.205248e+06 	4.450040e+03 	1.197641e+09 	4.559542e+01 	6.863139e+38 	
1.205295e+06 	4.407019e+03 	1.196169e+09 	4.603659e+01 	6.862362e+38 	
1.205342e+06 	4.364414e+03 	1.194701e+09 	4.648202e+01 	6.861582e+38 	
1.205389e+06 	4.322220e+03 	1.193236e+09 	4.693174e+01 	6.860797e+38 	
1.205437e+06 	4.280435e+03 	1.191775e+09 	4.738581e+01 	6.860008e+38 	
1.205484e+06 	4.239053e+03 	1.190317e+09 	4.784425e+01 	6.859215e+38 	
1.205532e+06 	4.198072e+03 	1.188863e+09 	4.830711e+01 	6.858417e+38 	
1.205580e+06 	4.157487e+03 	1.187412e+09 	4.877444e+01 	6.857616e+38 	
1.205628e+06 	4.117294e+03 	1.185964e+09 	4.924628e+01 	6.856809e+38 	
1.205677e+06 	4.077490e+03 	1.184520e+09 	4.972267e+01 	6.855999e+38 	
1.205725e+06 	4.038070e+03 	1.183079e+09 	5.020365e+01 	6.855184e+38 	
1.205774e+06 	3.999032e+03 	1.181642e+09 	5.068928e+01 	6.854365e+38 	
1.205822e+06 	3.960371e+03 	1.180208e+09 	5.117958e+01 	6.853541e+38 	
1.205871e+06 	3.922084e+03 	1.178777e+09 	5.167461e+01 	6.852712e+38 	
1.205920e+06 	3.884167e+03 	1.177350e+09 	5.217442e+01 	6.851880e+38 	
1.205969e+06 	3.846616e+03 	1.175926e+09 	5.267905e+01 	6.851042e+38 	
1.206019e+06 	3.809429e+03 	1.174505e+09 	5.318854e+01 	6.850201e+38 	
1.206068e+06 	3.772601e+03 	1.173087e+09 	5.370294e+01 	6.849354e+38 	
1.206118e+06 	3.736129e+03 	1.171673e+09 	5.422230e+01 	6.848503e+38 	
1.206168e+06 	3.700010e+03 	1.170262e+09 	5.474667e+01 	6.847647e+38 	
1.206218e+06 	3.664239e+03 	1.168854e+09 	5.527609e+01 	6.846787e+38 	
1.206268e+06 	3.628815e+03 	1.167449e+09 	5.581062e+01 	6.845922e+38 	
1.206318e+06 	3.593733e+03 	1.166047e+09 	5.635030e+01 	6.845053e+38 	
1.206369e+06 	3.558991e+03 	1.164649e+09 	5.689518e+01 	6.844178e+38 	
1.206420e+06 	3.524584e+03 	1.163254e+09 	5.744531e+01 	6.843299e+38 	
1.206471e+06 	3.490510e+03 	1.161862e+09 	5.800075e+01 	6.842415e+38 	
1.206522e+06 	3.456765e+03 	1.160473e+09 	5.856153e+01 	6.841526e+38 	
1.206573e+06 	3.423346e+03 	1.159087e+09 	5.912772e+01 	6.840633e+38 	
1.206624e+06 	3.390251e+03 	1.157704e+09 	5.969937e+01 	6.839734e+38 	
1.206676e+06 	3.357475e+03 	1.156324e+09 	6.027652e+01 	6.838831e+38 	
1.206727e+06 	3.325017e+03 	1.154947e+09 	6.085923e+01 	6.837922e+38 	
1.206779e+06 	3.292872e+03 	1.153574e+09 	6.144756e+01 	6.837009e+38 	
1.206831e+06 	3.261038e+03 	1.152203e+09 	6.204155e+01 	6.836091e+38 	
1.206884e+06 	3.229511e+03 	1.150836e+09 	6.264127e+01 	6.835168e+38 	
1.206936e+06 	3.198290e+03 	1.149471e+09 	6.324676e+01 	6.834239e+38 	
1.206989e+06 	3.167370e+03 	1.148109e+09 	6.385809e+01 	6.833306e+38 	
1.207042e+06 	3.136749e+03 	1.146750e+09 	6.447530e+01 	6.832368e+38 	
1.207095e+06 	3.106425e+03 	1.145395e+09 	6.509846e+01 	6.831424e+38 	
1.207148e+06 	3.076393e+03 	1.144042e+09 	6.572761e+01 	6.830475e+38 	
1.207201e+06 	3.046652e+03 	1.142691e+09 	6.636283e+01 	6.829521e+38 	
1.207255e+06 	3.017198e+03 	1.141344e+09 	6.700416e+01 	6.828562e+38 	
1.207309e+06 	2.988029e+03 	1.140000e+09 	6.765166e+01 	6.827598e+38 	
1.207363e+06 	2.959142e+03 	1.138659e+09 	6.830540e+01 	6.826628e+38 	
1.207417e+06 	2.930534e+03 	1.137320e+09 	6.896543e+01 	6.825653e+38 	
1.207471e+06 	2.902203e+03 	1.135984e+09 	6.963182e+01 	6.824673e+38 	
1.207526e+06 	2.874146e+03 	1.134651e+09 	7.030462e+01 	6.823687e+38 	
1.207580e+06 	2.846360e+03 	1.133321e+09 	7.098390e+01 	6.822696e+38 	
1.207635e+06 	2.818842e+03 	1.131994e+09 	7.166971e+01 	6.821700e+38 	
1.207691e+06 	2.791591e+03 	1.130669e+09 	7.236213e+01 	6.820698e+38 	
1.207746e+06 	2.764603e+03 	1.129347e+09 	7.306120e+01 	6.819691e+38 	
1.207801e+06 	2.737876e+03 	1.128028e+09 	7.376701e+01 	6.818678e+38 	
1.207857e+06 	2.711407e+03 	1.126712e+09 	7.447960e+01 	6.817659e+38 	
1.207913e+06 	2.685195e+03 	1.125398e+09 	7.519905e+01 	6.816635e+38 	
1.207969e+06 	2.659235e+03 	1.124087e+09 	7.592542e+01 	6.815606e+38 	
1.208026e+06 	2.633527e+03 	1.122778e+09 	7.665878e+01 	6.814571e+38 	
1.208082e+06 	2.608067e+03 	1.121472e+09 	7.739920e+01 	6.813530e+38 	
1.208139e+06 	2.582853e+03 	1.120169e+09 	7.814673e+01 	6.812483e+38 	
1.208196e+06 	2.557883e+03 	1.118869e+09 	7.890146e+01 	6.811431e+38 	
1.208253e+06 	2.533155e+03 	1.117571e+09 	7.966344e+01 	6.810373e+38 	
1.208311e+06 	2.508665e+03 	1.116275e+09 	8.043275e+01 	6.809309e+38 	
1.208369e+06 	2.484413e+03 	1.114982e+09 	8.120946e+01 	6.808239e+38 	
1.208427e+06 	2.460394e+03 	1.113692e+09 	8.199363e+01 	6.807164e+38 	
1.208485e+06 	2.436608e+03 	1.112404e+09 	8.278535e+01 	6.806083e+38 	
1.208543e+06 	2.413052e+03 	1.111119e+09 	8.358467e+01 	6.804995e+38 	
1.208602e+06 	2.389724e+03 	1.109836e+09 	8.439168e+01 	6.803902e+38 	
1.208660e+06 	2.366621e+03 	1.108556e+09 	8.520645e+01 	6.802803e+38 	
1.208719e+06 	2.343742e+03 	1.107278e+09 	8.602905e+01 	6.801698e+38 	
1.208779e+06 	2.321083e+03 	1.106003e+09 	8.685955e+01 	6.800586e+38 	
1.208838e+06 	2.298644e+03 	1.104730e+09 	8.769804e+01 	6.799469e+38 	
1.208898e+06 	2.276422e+03 	1.103460e+09 	8.854458e+01 	6.798346e+38 	
1.208958e+06 	2.254414e+03 	1.102192e+09 	8.939926e+01 	6.797216e+38 	
1.209018e+06 	2.232620e+03 	1.100926e+09 	9.026214e+01 	6.796080e+38 	
1.209079e+06 	2.211036e+03 	1.099662e+09 	9.113332e+01 	6.794938e+38 	
1.209139e+06 	2.189660e+03 	1.098401e+09 	9.201286e+01 	6.793790e+38 	
1.209200e+06 	2.168491e+03 	1.097143e+09 	9.290086e+01 	6.792636e+38 	
1.209261e+06 	2.147527e+03 	1.095886e+09 	9.379738e+01 	6.791475e+38 	
1.209323e+06 	2.126766e+03 	1.094633e+09 	9.470252e+01 	6.790308e+38 	
1.209385e+06 	2.106205e+03 	1.093381e+09 	9.561634e+01 	6.789135e+38 	
1.209446e+06 	2.085843e+03 	1.092131e+09 	9.653894e+01 	6.787955e+38 	
1.209509e+06 	2.065678e+03 	1.090884e+09 	9.747040e+01 	6.786769e+38 	
1.209571e+06 	2.045708e+03 	1.089639e+09 	9.841080e+01 	6.785576e+38 	
1.209634e+06 	2.025931e+03 	1.088397e+09 	9.936023e+01 	6.784377e+38 	
1.209697e+06 	2.006345e+03 	1.087156e+09 	1.003188e+02 	6.783171e+38 	
1.209760e+06 	1.986949e+03 	1.085918e+09 	1.012865e+02 	6.781959e+38 	
1.209823e+06 	1.967740e+03 	1.084682e+09 	1.022635e+02 	6.780740e+38 	
1.209887e+06 	1.948717e+03 	1.083448e+09 	1.032499e+02 	6.779514e+38 	
1.209951e+06 	1.929877e+03 	1.082216e+09 	1.042458e+02 	6.778282e+38 	
1.210015e+06 	1.911220e+03 	1.080986e+09 	1.052512e+02 	6.777043e+38 	
1.210080e+06 	1.892743e+03 	1.079759e+09 	1.062663e+02 	6.775797e+38 	
1.210145e+06 	1.874445e+03 	1.078533e+09 	1.072911e+02 	6.774545e+38 	
1.210210e+06 	1.856324e+03 	1.077310e+09 	1.083258e+02 	6.773286e+38 	
1.210275e+06 	1.838377e+03 	1.076089e+09 	1.093703e+02 	6.772020e+38 	
1.210341e+06 	1.820605e+03 	1.074870e+09 	1.104249e+02 	6.770747e+38 	
1.210407e+06 	1.803004e+03 	1.073652e+09 	1.114896e+02 	6.769467e+38 	
1.210473e+06 	1.785573e+03 	1.072437e+09 	1.125645e+02 	6.768180e+38 	
1.210540e+06 	1.768311e+03 	1.071224e+09 	1.136497e+02 	6.766887e+38 	
1.210606e+06 	1.751216e+03 	1.070013e+09 	1.147453e+02 	6.765586e+38 	
1.210673e+06 	1.734286e+03 	1.068804e+09 	1.158514e+02 	6.764278e+38 	
1.210741e+06 	1.717519e+03 	1.067597e+09 	1.169682e+02 	6.762963e+38 	
1.210808e+06 	1.700915e+03 	1.066391e+09 	1.180956e+02 	6.761641e+38 	
1.210876e+06 	1.684471e+03 	1.065188e+09 	1.192338e+02 	6.760312e+38 	
1.210945e+06 	1.668187e+03 	1.063987e+09 	1.203829e+02 	6.758976e+38 	
1.211013e+06 	1.652059e+03 	1.062787e+09 	1.215431e+02 	6.757632e+38 	
1.211082e+06 	1.636088e+03 	1.061589e+09 	1.227143e+02 	6.756282e+38 	
1.211151e+06 	1.620271e+03 	1.060394e+09 	1.238968e+02 	6.754924e+38 	
1.211221e+06 	1.604607e+03 	1.059200e+09 	1.250906e+02 	6.753558e+38 	
1.211290e+06 	1.589094e+03 	1.058007e+09 	1.262958e+02 	6.752186e+38 	
1.211361e+06 	1.573731e+03 	1.056817e+09 	1.275126e+02 	6.750806e+38 	
1.211431e+06 	1.558517e+03 	1.055629e+09 	1.287410e+02 	6.749418e+38 	
1.211502e+06 	1.543450e+03 	1.054442e+09 	1.299812e+02 	6.748023e+38 	
1.211573e+06 	1.528529e+03 	1.053257e+09 	1.312333e+02 	6.746620e+38 	
1.211644e+06 	1.513752e+03 	1.052074e+09 	1.324973e+02 	6.745210e+38 	
1.211716e+06 	1.499117e+03 	1.050893e+09 	1.337735e+02 	6.743793e+38 	
1.211788e+06 	1.484624e+03 	1.049713e+09 	1.350618e+02 	6.742368e+38 	
1.211860e+06 	1.470272e+03 	1.048535e+09 	1.363625e+02 	6.740935e+38 	
1.211933e+06 	1.456058e+03 	1.047359e+09 	1.376757e+02 	6.739494e+38 	
1.212006e+06 	1.441981e+03 	1.046184e+09 	1.390013e+02 	6.738046e+38 	
1.212079e+06 	1.428041e+03 	1.045011e+09 	1.403397e+02 	6.736590e+38 	
1.212153e+06 	1.414235e+03 	1.043840e+09 	1.416909e+02 	6.735126e+38 	
1.212227e+06 	1.400563e+03 	1.042670e+09 	1.430550e+02 	6.733655e+38 	
1.212301e+06 	1.387023e+03 	1.041502e+09 	1.444321e+02 	6.732175e+38 	
1.212376e+06 	1.373614e+03 	1.040336e+09 	1.458224e+02 	6.730688e+38 	
1.212451e+06 	1.360334e+03 	1.039171e+09 	1.472260e+02 	6.729193e+38 	
1.212526e+06 	1.347183e+03 	1.038008e+09 	1.486431e+02 	6.727690e+38 	
1.212602e+06 	1.334159e+03 	1.036846e+09 	1.500736e+02 	6.726179e+38 	
1.212678e+06 	1.321261e+03 	1.035686e+09 	1.515179e+02 	6.724659e+38 	
1.212755e+06 	1.308487e+03 	1.034528e+09 	1.529759e+02 	6.723132e+38 	
1.212832e+06 	1.295838e+03 	1.033370e+09 	1.544479e+02 	6.721597e+38 	
1.212909e+06 	1.283310e+03 	1.032215e+09 	1.559339e+02 	6.720053e+38 	
1.212986e+06 	1.270903e+03 	1.031061e+09 	1.574341e+02 	6.718502e+38 	
1.213064e+06 	1.258617e+03 	1.029908e+09 	1.589487e+02 	6.716942e+38 	
1.213143e+06 	1.246449e+03 	1.028757e+09 	1.604777e+02 	6.715374e+38 	
1.213221e+06 	1.234399e+03 	1.027607e+09 	1.620213e+02 	6.713797e+38 	
1.213300e+06 	1.222465e+03 	1.026459e+09 	1.635796e+02 	6.712213e+38 	
1.213380e+06 	1.210647e+03 	1.025312e+09 	1.651529e+02 	6.710620e+38 	
1.213460e+06 	1.198943e+03 	1.024166e+09 	1.667411e+02 	6.709018e+38 	
1.213540e+06 	1.187352e+03 	1.023022e+09 	1.683445e+02 	6.707408e+38 	
1.213621e+06 	1.175873e+03 	1.021879e+09 	1.699632e+02 	6.705790e+38 	
1.213702e+06 	1.164505e+03 	1.020738e+09 	1.715973e+02 	6.704163e+38 	
1.213783e+06 	1.153248e+03 	1.019598e+09 	1.732471e+02 	6.702528e+38 	
1.213865e+06 	1.142098e+03 	1.018459e+09 	1.749125e+02 	6.700884e+38 	
1.213947e+06 	1.131057e+03 	1.017321e+09 	1.765939e+02 	6.699232e+38 	
1.214030e+06 	1.120123e+03 	1.016185e+09 	1.782913e+02 	6.697570e+38 	
1.214113e+06 	1.109294e+03 	1.015050e+09 	1.800048e+02 	6.695901e+38 	
1.214196e+06 	1.098569e+03 	1.013916e+09 	1.817348e+02 	6.694222e+38 	
1.214280e+06 	1.087949e+03 	1.012784e+09 	1.834811e+02 	6.692535e+38 	
1.214365e+06 	1.077431e+03 	1.011653e+09 	1.852442e+02 	6.690839e+38 	
1.214449e+06 	1.067015e+03 	1.010522e+09 	1.870240e+02 	6.689134e+38 	
