r (cm)      	rho (g/cm3) 	T (K)       	u (cm/s)    	L* (erg/s)  			 Edot= 4.199620e+38
1.200071e+06 	1.153274e+05 	1.284449e+09 	4.195687e-02 	3.684992e+38 	
1.200080e+06 	1.139415e+05 	1.280578e+09 	4.246642e-02 	3.684991e+38 	
1.200090e+06 	1.125723e+05 	1.276719e+09 	4.298216e-02 	3.684991e+38 	
1.200100e+06 	1.112195e+05 	1.272872e+09 	4.350417e-02 	3.684990e+38 	
1.200109e+06 	1.098830e+05 	1.269036e+09 	4.403252e-02 	3.684989e+38 	
1.200119e+06 	1.085626e+05 	1.265213e+09 	4.456728e-02 	3.684988e+38 	
1.200128e+06 	1.072580e+05 	1.261402e+09 	4.510854e-02 	3.684988e+38 	
1.200138e+06 	1.059691e+05 	1.257603e+09 	4.565638e-02 	3.684987e+38 	
1.200147e+06 	1.046956e+05 	1.253815e+09 	4.621087e-02 	3.684986e+38 	
1.200157e+06 	1.034375e+05 	1.250040e+09 	4.677210e-02 	3.684985e+38 	
1.200166e+06 	1.021945e+05 	1.246276e+09 	4.734014e-02 	3.684985e+38 	
1.200176e+06 	1.009664e+05 	1.242524e+09 	4.791509e-02 	3.684984e+38 	
1.200185e+06 	9.975313e+04 	1.238784e+09 	4.849702e-02 	3.684983e+38 	
1.200195e+06 	9.855440e+04 	1.235055e+09 	4.908602e-02 	3.684982e+38 	
1.200204e+06 	9.737008e+04 	1.231338e+09 	4.968217e-02 	3.684982e+38 	
1.200214e+06 	9.619999e+04 	1.227633e+09 	5.028557e-02 	3.684981e+38 	
1.200223e+06 	9.504396e+04 	1.223939e+09 	5.089629e-02 	3.684980e+38 	
1.200232e+06 	9.390182e+04 	1.220257e+09 	5.151444e-02 	3.684979e+38 	
1.200242e+06 	9.277341e+04 	1.216586e+09 	5.214009e-02 	3.684979e+38 	
1.200251e+06 	9.165855e+04 	1.212927e+09 	5.277335e-02 	3.684978e+38 	
1.200260e+06 	9.055710e+04 	1.209279e+09 	5.341430e-02 	3.684977e+38 	
1.200270e+06 	8.946888e+04 	1.205643e+09 	5.406303e-02 	3.684977e+38 	
1.200279e+06 	8.839373e+04 	1.202018e+09 	5.471965e-02 	3.684976e+38 	
1.200288e+06 	8.733151e+04 	1.198404e+09 	5.538424e-02 	3.684975e+38 	
1.200298e+06 	8.628205e+04 	1.194802e+09 	5.605690e-02 	3.684974e+38 	
1.200307e+06 	8.524521e+04 	1.191211e+09 	5.673774e-02 	3.684974e+38 	
1.200316e+06 	8.422082e+04 	1.187631e+09 	5.742685e-02 	3.684973e+38 	
1.200325e+06 	8.320874e+04 	1.184062e+09 	5.812433e-02 	3.684972e+38 	
1.200334e+06 	8.220883e+04 	1.180504e+09 	5.883028e-02 	3.684971e+38 	
1.200344e+06 	8.122093e+04 	1.176958e+09 	5.954481e-02 	3.684971e+38 	
1.200353e+06 	8.024490e+04 	1.173422e+09 	6.026802e-02 	3.684970e+38 	
1.200362e+06 	7.928060e+04 	1.169898e+09 	6.100001e-02 	3.684969e+38 	
1.200371e+06 	7.832789e+04 	1.166385e+09 	6.174090e-02 	3.684968e+38 	
1.200380e+06 	7.738663e+04 	1.162883e+09 	6.249079e-02 	3.684968e+38 	
1.200389e+06 	7.645668e+04 	1.159391e+09 	6.324978e-02 	3.684967e+38 	
1.200398e+06 	7.553790e+04 	1.155911e+09 	6.401800e-02 	3.684966e+38 	
1.200407e+06 	7.463017e+04 	1.152441e+09 	6.479555e-02 	3.684965e+38 	
1.200416e+06 	7.373334e+04 	1.148982e+09 	6.558255e-02 	3.684965e+38 	
1.200425e+06 	7.284729e+04 	1.145534e+09 	6.637911e-02 	3.684964e+38 	
1.200434e+06 	7.197189e+04 	1.142097e+09 	6.718534e-02 	3.684963e+38 	
1.200443e+06 	7.110701e+04 	1.138671e+09 	6.800137e-02 	3.684963e+38 	
1.200452e+06 	7.025252e+04 	1.135255e+09 	6.882731e-02 	3.684962e+38 	
1.200461e+06 	6.940830e+04 	1.131850e+09 	6.966329e-02 	3.684961e+38 	
1.200470e+06 	6.857422e+04 	1.128456e+09 	7.050942e-02 	3.684960e+38 	
1.200479e+06 	6.775017e+04 	1.125072e+09 	7.136584e-02 	3.684960e+38 	
1.200488e+06 	6.693602e+04 	1.121699e+09 	7.223265e-02 	3.684959e+38 	
1.200497e+06 	6.613165e+04 	1.118336e+09 	7.311000e-02 	3.684958e+38 	
1.200506e+06 	6.533695e+04 	1.114984e+09 	7.399800e-02 	3.684958e+38 	
1.200515e+06 	6.455180e+04 	1.111642e+09 	7.489680e-02 	3.684957e+38 	
1.200524e+06 	6.377609e+04 	1.108311e+09 	7.580651e-02 	3.684956e+38 	
1.200532e+06 	6.300969e+04 	1.104990e+09 	7.672728e-02 	3.684955e+38 	
1.200541e+06 	6.225251e+04 	1.101680e+09 	7.765923e-02 	3.684955e+38 	
1.200550e+06 	6.150442e+04 	1.098380e+09 	7.860250e-02 	3.684954e+38 	
1.200559e+06 	6.076533e+04 	1.095090e+09 	7.955723e-02 	3.684953e+38 	
1.200568e+06 	6.003512e+04 	1.091810e+09 	8.052356e-02 	3.684952e+38 	
1.200576e+06 	5.931368e+04 	1.088541e+09 	8.150164e-02 	3.684952e+38 	
1.200585e+06 	5.860091e+04 	1.085282e+09 	8.249159e-02 	3.684951e+38 	
1.200594e+06 	5.789670e+04 	1.082034e+09 	8.349357e-02 	3.684950e+38 	
1.200603e+06 	5.720096e+04 	1.078795e+09 	8.450772e-02 	3.684950e+38 	
1.200611e+06 	5.651358e+04 	1.075566e+09 	8.553420e-02 	3.684949e+38 	
1.200620e+06 	5.583446e+04 	1.072348e+09 	8.657314e-02 	3.684948e+38 	
1.200629e+06 	5.516350e+04 	1.069139e+09 	8.762471e-02 	3.684947e+38 	
1.200637e+06 	5.450060e+04 	1.065941e+09 	8.868905e-02 	3.684947e+38 	
1.200646e+06 	5.384567e+04 	1.062753e+09 	8.976633e-02 	3.684946e+38 	
1.200654e+06 	5.319861e+04 	1.059574e+09 	9.085669e-02 	3.684945e+38 	
1.200663e+06 	5.255933e+04 	1.056406e+09 	9.196030e-02 	3.684945e+38 	
1.200672e+06 	5.192773e+04 	1.053248e+09 	9.307731e-02 	3.684944e+38 	
1.200680e+06 	5.130371e+04 	1.050099e+09 	9.420790e-02 	3.684943e+38 	
1.200689e+06 	5.068720e+04 	1.046960e+09 	9.535222e-02 	3.684942e+38 	
1.200697e+06 	5.007809e+04 	1.043831e+09 	9.651045e-02 	3.684942e+38 	
1.200706e+06 	4.947631e+04 	1.040712e+09 	9.768274e-02 	3.684941e+38 	
1.200714e+06 	4.888175e+04 	1.037602e+09 	9.886928e-02 	3.684940e+38 	
1.200723e+06 	4.829434e+04 	1.034503e+09 	1.000702e-01 	3.684940e+38 	
1.200731e+06 	4.771399e+04 	1.031413e+09 	1.012858e-01 	3.684939e+38 	
1.200740e+06 	4.714062e+04 	1.028332e+09 	1.025161e-01 	3.684938e+38 	
1.200748e+06 	4.657413e+04 	1.025262e+09 	1.037614e-01 	3.684938e+38 	
1.200757e+06 	4.601445e+04 	1.022200e+09 	1.050217e-01 	3.684937e+38 	
1.200765e+06 	4.546150e+04 	1.019149e+09 	1.062974e-01 	3.684936e+38 	
1.200773e+06 	4.491519e+04 	1.016107e+09 	1.075886e-01 	3.684935e+38 	
1.200782e+06 	4.437545e+04 	1.013074e+09 	1.088955e-01 	3.684935e+38 	
1.200790e+06 	4.384219e+04 	1.010051e+09 	1.102183e-01 	3.684934e+38 	
1.200799e+06 	4.331534e+04 	1.007038e+09 	1.115571e-01 	3.684933e+38 	
1.200807e+06 	4.279482e+04 	1.004034e+09 	1.129122e-01 	3.684933e+38 	
1.200815e+06 	4.228056e+04 	1.001039e+09 	1.142838e-01 	3.684932e+38 	
1.200824e+06 	4.177248e+04 	9.980535e+08 	1.156720e-01 	3.684931e+38 	
1.200832e+06 	4.127050e+04 	9.950774e+08 	1.170771e-01 	3.684931e+38 	
1.200840e+06 	4.077455e+04 	9.921106e+08 	1.184993e-01 	3.684930e+38 	
1.200848e+06 	4.028457e+04 	9.891531e+08 	1.199388e-01 	3.684929e+38 	
1.200857e+06 	3.980047e+04 	9.862050e+08 	1.213957e-01 	3.684928e+38 	
1.200865e+06 	3.932219e+04 	9.832660e+08 	1.228703e-01 	3.684928e+38 	
1.200873e+06 	3.884966e+04 	9.803363e+08 	1.243629e-01 	3.684927e+38 	
1.200881e+06 	3.838280e+04 	9.774157e+08 	1.258736e-01 	3.684926e+38 	
1.200890e+06 	3.792156e+04 	9.745042e+08 	1.274026e-01 	3.684926e+38 	
1.200898e+06 	3.746586e+04 	9.716017e+08 	1.289502e-01 	3.684925e+38 	
1.200906e+06 	3.701563e+04 	9.687084e+08 	1.305166e-01 	3.684924e+38 	
1.200914e+06 	3.657082e+04 	9.658242e+08 	1.321021e-01 	3.684924e+38 	
1.200922e+06 	3.613135e+04 	9.629490e+08 	1.337068e-01 	3.684923e+38 	
1.200931e+06 	3.569716e+04 	9.600828e+08 	1.353310e-01 	3.684922e+38 	
1.200939e+06 	3.526819e+04 	9.572256e+08 	1.369750e-01 	3.684922e+38 	
1.200947e+06 	3.484437e+04 	9.543772e+08 	1.386389e-01 	3.684921e+38 	
1.200955e+06 	3.442565e+04 	9.515378e+08 	1.403230e-01 	3.684920e+38 	
1.200963e+06 	3.401196e+04 	9.487072e+08 	1.420276e-01 	3.684919e+38 	
1.200971e+06 	3.360324e+04 	9.458855e+08 	1.437529e-01 	3.684919e+38 	
1.200979e+06 	3.319943e+04 	9.430727e+08 	1.454992e-01 	3.684918e+38 	
1.200987e+06 	3.280048e+04 	9.402687e+08 	1.472667e-01 	3.684917e+38 	
1.200995e+06 	3.240631e+04 	9.374735e+08 	1.490557e-01 	3.684917e+38 	
1.201003e+06 	3.201689e+04 	9.346870e+08 	1.508664e-01 	3.684916e+38 	
1.201011e+06 	3.163214e+04 	9.319092e+08 	1.526990e-01 	3.684915e+38 	
1.201019e+06 	3.125202e+04 	9.291400e+08 	1.545540e-01 	3.684915e+38 	
1.201027e+06 	3.087647e+04 	9.263795e+08 	1.564315e-01 	3.684914e+38 	
1.201035e+06 	3.050543e+04 	9.236277e+08 	1.583318e-01 	3.684913e+38 	
1.201043e+06 	3.013885e+04 	9.208844e+08 	1.602552e-01 	3.684913e+38 	
1.201051e+06 	2.977667e+04 	9.181499e+08 	1.622020e-01 	3.684912e+38 	
1.201059e+06 	2.941884e+04 	9.154239e+08 	1.641724e-01 	3.684911e+38 	
1.201067e+06 	2.906532e+04 	9.127064e+08 	1.661668e-01 	3.684910e+38 	
1.201075e+06 	2.871604e+04 	9.099974e+08 	1.681854e-01 	3.684910e+38 	
1.201083e+06 	2.837096e+04 	9.072969e+08 	1.702285e-01 	3.684909e+38 	
1.201091e+06 	2.803003e+04 	9.046047e+08 	1.722965e-01 	3.684908e+38 	
1.201098e+06 	2.769320e+04 	9.019210e+08 	1.743895e-01 	3.684908e+38 	
1.201106e+06 	2.736041e+04 	8.992457e+08 	1.765080e-01 	3.684907e+38 	
1.201114e+06 	2.703162e+04 	8.965789e+08 	1.786523e-01 	3.684906e+38 	
1.201122e+06 	2.670678e+04 	8.939204e+08 	1.808226e-01 	3.684906e+38 	
1.201130e+06 	2.638585e+04 	8.912702e+08 	1.830192e-01 	3.684905e+38 	
1.201138e+06 	2.606877e+04 	8.886283e+08 	1.852426e-01 	3.684904e+38 	
1.201145e+06 	2.575550e+04 	8.859947e+08 	1.874930e-01 	3.684904e+38 	
1.201153e+06 	2.544600e+04 	8.833692e+08 	1.897707e-01 	3.684903e+38 	
1.201161e+06 	2.514022e+04 	8.807520e+08 	1.920761e-01 	3.684902e+38 	
1.201169e+06 	2.483811e+04 	8.781429e+08 	1.944095e-01 	3.684902e+38 	
1.201177e+06 	2.453963e+04 	8.755421e+08 	1.967712e-01 	3.684901e+38 	
1.201184e+06 	2.424474e+04 	8.729495e+08 	1.991617e-01 	3.684900e+38 	
1.201192e+06 	2.395339e+04 	8.703650e+08 	2.015811e-01 	3.684900e+38 	
1.201200e+06 	2.366555e+04 	8.677885e+08 	2.040300e-01 	3.684899e+38 	
1.201207e+06 	2.338116e+04 	8.652201e+08 	2.065087e-01 	3.684898e+38 	
1.201215e+06 	2.310019e+04 	8.626598e+08 	2.090174e-01 	3.684898e+38 	
1.201223e+06 	2.282259e+04 	8.601074e+08 	2.115567e-01 	3.684897e+38 	
1.201230e+06 	2.254834e+04 	8.575630e+08 	2.141268e-01 	3.684896e+38 	
1.201238e+06 	2.227737e+04 	8.550266e+08 	2.167281e-01 	3.684896e+38 	
1.201246e+06 	2.200967e+04 	8.524982e+08 	2.193610e-01 	3.684895e+38 	
1.201253e+06 	2.174518e+04 	8.499777e+08 	2.220259e-01 	3.684894e+38 	
1.201261e+06 	2.148387e+04 	8.474651e+08 	2.247232e-01 	3.684894e+38 	
1.201269e+06 	2.122570e+04 	8.449604e+08 	2.274533e-01 	3.684893e+38 	
1.201276e+06 	2.097063e+04 	8.424634e+08 	2.302165e-01 	3.684892e+38 	
1.201284e+06 	2.071863e+04 	8.399743e+08 	2.330134e-01 	3.684891e+38 	
1.201291e+06 	2.046965e+04 	8.374929e+08 	2.358442e-01 	3.684891e+38 	
1.201299e+06 	2.022367e+04 	8.350194e+08 	2.387094e-01 	3.684890e+38 	
1.201306e+06 	1.998064e+04 	8.325537e+08 	2.416094e-01 	3.684889e+38 	
1.201314e+06 	1.974054e+04 	8.300957e+08 	2.445446e-01 	3.684889e+38 	
1.201321e+06 	1.950332e+04 	8.276453e+08 	2.475155e-01 	3.684888e+38 	
1.201329e+06 	1.926895e+04 	8.252027e+08 	2.505225e-01 	3.684887e+38 	
1.201337e+06 	1.903739e+04 	8.227676e+08 	2.535661e-01 	3.684887e+38 	
1.201344e+06 	1.880862e+04 	8.203401e+08 	2.566466e-01 	3.684886e+38 	
1.201351e+06 	1.858260e+04 	8.179203e+08 	2.597646e-01 	3.684885e+38 	
1.201359e+06 	1.835929e+04 	8.155081e+08 	2.629204e-01 	3.684885e+38 	
1.201366e+06 	1.813867e+04 	8.131035e+08 	2.661146e-01 	3.684884e+38 	
1.201374e+06 	1.792070e+04 	8.107064e+08 	2.693476e-01 	3.684883e+38 	
1.201381e+06 	1.770535e+04 	8.083168e+08 	2.726199e-01 	3.684883e+38 	
1.201389e+06 	1.749258e+04 	8.059347e+08 	2.759319e-01 	3.684882e+38 	
1.201396e+06 	1.728238e+04 	8.035600e+08 	2.792842e-01 	3.684881e+38 	
1.201404e+06 	1.707469e+04 	8.011928e+08 	2.826772e-01 	3.684881e+38 	
1.201411e+06 	1.686951e+04 	7.988329e+08 	2.861115e-01 	3.684880e+38 	
1.201418e+06 	1.666679e+04 	7.964805e+08 	2.895874e-01 	3.684879e+38 	
1.201426e+06 	1.646650e+04 	7.941355e+08 	2.931057e-01 	3.684879e+38 	
1.201433e+06 	1.626863e+04 	7.917979e+08 	2.966666e-01 	3.684878e+38 	
1.201440e+06 	1.607313e+04 	7.894676e+08 	3.002708e-01 	3.684877e+38 	
1.201448e+06 	1.587998e+04 	7.871445e+08 	3.039189e-01 	3.684877e+38 	
1.201455e+06 	1.568915e+04 	7.848287e+08 	3.076112e-01 	3.684876e+38 	
1.201462e+06 	1.550061e+04 	7.825202e+08 	3.113484e-01 	3.684875e+38 	
1.201470e+06 	1.531434e+04 	7.802188e+08 	3.151310e-01 	3.684875e+38 	
1.201477e+06 	1.513031e+04 	7.779247e+08 	3.189596e-01 	3.684874e+38 	
1.201484e+06 	1.494849e+04 	7.756379e+08 	3.228347e-01 	3.684873e+38 	
1.201492e+06 	1.476886e+04 	7.733583e+08 	3.267569e-01 	3.684873e+38 	
1.201499e+06 	1.459138e+04 	7.710857e+08 	3.307268e-01 	3.684872e+38 	
1.201506e+06 	1.441604e+04 	7.688203e+08 	3.347449e-01 	3.684871e+38 	
1.201513e+06 	1.424280e+04 	7.665620e+08 	3.388118e-01 	3.684871e+38 	
1.201521e+06 	1.407164e+04 	7.643107e+08 	3.429281e-01 	3.684870e+38 	
1.201528e+06 	1.390255e+04 	7.620665e+08 	3.470944e-01 	3.684869e+38 	
1.201535e+06 	1.373548e+04 	7.598293e+08 	3.513114e-01 	3.684869e+38 	
1.201542e+06 	1.357042e+04 	7.575992e+08 	3.555796e-01 	3.684868e+38 	
1.201549e+06 	1.340735e+04 	7.553761e+08 	3.598997e-01 	3.684867e+38 	
1.201557e+06 	1.324623e+04 	7.531600e+08 	3.642723e-01 	3.684867e+38 	
1.201564e+06 	1.308705e+04 	7.509508e+08 	3.686980e-01 	3.684866e+38 	
1.201571e+06 	1.292979e+04 	7.487485e+08 	3.731774e-01 	3.684865e+38 	
1.201578e+06 	1.277441e+04 	7.465530e+08 	3.777113e-01 	3.684865e+38 	
1.201585e+06 	1.262090e+04 	7.443645e+08 	3.823003e-01 	3.684864e+38 	
1.201592e+06 	1.246924e+04 	7.421828e+08 	3.869451e-01 	3.684863e+38 	
1.201600e+06 	1.231939e+04 	7.400081e+08 	3.916463e-01 	3.684863e+38 	
1.201607e+06 	1.217135e+04 	7.378402e+08 	3.964046e-01 	3.684862e+38 	
1.201614e+06 	1.202509e+04 	7.356790e+08 	4.012207e-01 	3.684861e+38 	
1.201621e+06 	1.188058e+04 	7.335247e+08 	4.060954e-01 	3.684861e+38 	
1.201628e+06 	1.173782e+04 	7.313770e+08 	4.110293e-01 	3.684860e+38 	
1.201635e+06 	1.159676e+04 	7.292361e+08 	4.160231e-01 	3.684859e+38 	
1.201642e+06 	1.145741e+04 	7.271019e+08 	4.210777e-01 	3.684859e+38 	
1.201649e+06 	1.131972e+04 	7.249744e+08 	4.261936e-01 	3.684858e+38 	
1.201656e+06 	1.118369e+04 	7.228536e+08 	4.313717e-01 	3.684857e+38 	
1.201663e+06 	1.104930e+04 	7.207395e+08 	4.366127e-01 	3.684857e+38 	
1.201670e+06 	1.091652e+04 	7.186320e+08 	4.419174e-01 	3.684856e+38 	
1.201677e+06 	1.078534e+04 	7.165312e+08 	4.472866e-01 	3.684855e+38 	
1.201684e+06 	1.065573e+04 	7.144369e+08 	4.527210e-01 	3.684855e+38 	
1.201691e+06 	1.052768e+04 	7.123491e+08 	4.582215e-01 	3.684854e+38 	
1.201698e+06 	1.040117e+04 	7.102679e+08 	4.637888e-01 	3.684853e+38 	
1.201705e+06 	1.027618e+04 	7.081933e+08 	4.694237e-01 	3.684853e+38 	
1.201712e+06 	1.015269e+04 	7.061251e+08 	4.751271e-01 	3.684852e+38 	
1.201719e+06 	1.003069e+04 	7.040635e+08 	4.808998e-01 	3.684851e+38 	
1.201726e+06 	9.910150e+03 	7.020084e+08 	4.867427e-01 	3.684851e+38 	
1.201733e+06 	9.791060e+03 	6.999597e+08 	4.926565e-01 	3.684850e+38 	
1.201740e+06 	9.673402e+03 	6.979175e+08 	4.986422e-01 	3.684849e+38 	
1.201747e+06 	9.557157e+03 	6.958816e+08 	5.047007e-01 	3.684849e+38 	
1.201754e+06 	9.442309e+03 	6.938521e+08 	5.108327e-01 	3.684848e+38 	
1.201761e+06 	9.328842e+03 	6.918289e+08 	5.170393e-01 	3.684847e+38 	
1.201768e+06 	9.216737e+03 	6.898122e+08 	5.233213e-01 	3.684847e+38 	
1.201775e+06 	9.105980e+03 	6.878018e+08 	5.296796e-01 	3.684846e+38 	
1.201782e+06 	8.996554e+03 	6.857977e+08 	5.361152e-01 	3.684846e+38 	
1.201788e+06 	8.888443e+03 	6.838000e+08 	5.426290e-01 	3.684845e+38 	
1.201795e+06 	8.781631e+03 	6.818084e+08 	5.492220e-01 	3.684844e+38 	
1.201802e+06 	8.676103e+03 	6.798232e+08 	5.558950e-01 	3.684844e+38 	
1.201809e+06 	8.571843e+03 	6.778441e+08 	5.626492e-01 	3.684843e+38 	
1.201816e+06 	8.468835e+03 	6.758713e+08 	5.694854e-01 	3.684842e+38 	
1.201823e+06 	8.367066e+03 	6.739046e+08 	5.764047e-01 	3.684842e+38 	
1.201830e+06 	8.266519e+03 	6.719442e+08 	5.834081e-01 	3.684841e+38 	
1.201836e+06 	8.167181e+03 	6.699900e+08 	5.904965e-01 	3.684840e+38 	
1.201843e+06 	8.069036e+03 	6.680419e+08 	5.976711e-01 	3.684840e+38 	
1.201850e+06 	7.972071e+03 	6.660999e+08 	6.049329e-01 	3.684839e+38 	
1.201857e+06 	7.876271e+03 	6.641639e+08 	6.122830e-01 	3.684838e+38 	
1.201864e+06 	7.781622e+03 	6.622341e+08 	6.197223e-01 	3.684838e+38 	
1.201870e+06 	7.688111e+03 	6.603103e+08 	6.272520e-01 	3.684837e+38 	
1.201877e+06 	7.595724e+03 	6.583926e+08 	6.348733e-01 	3.684836e+38 	
1.201884e+06 	7.504446e+03 	6.564809e+08 	6.425871e-01 	3.684836e+38 	
1.201891e+06 	7.414266e+03 	6.545753e+08 	6.503947e-01 	3.684835e+38 	
1.201897e+06 	7.325169e+03 	6.526756e+08 	6.582972e-01 	3.684834e+38 	
1.201904e+06 	7.237143e+03 	6.507819e+08 	6.662957e-01 	3.684834e+38 	
1.201911e+06 	7.150174e+03 	6.488941e+08 	6.743913e-01 	3.684833e+38 	
1.201917e+06 	7.064251e+03 	6.470123e+08 	6.825854e-01 	3.684832e+38 	
1.201924e+06 	6.979360e+03 	6.451363e+08 	6.908790e-01 	3.684832e+38 	
1.201931e+06 	6.895490e+03 	6.432663e+08 	6.992734e-01 	3.684831e+38 	
1.201938e+06 	6.812627e+03 	6.414022e+08 	7.077698e-01 	3.684830e+38 	
1.201944e+06 	6.730760e+03 	6.395440e+08 	7.163695e-01 	3.684830e+38 	
1.201951e+06 	6.649877e+03 	6.376916e+08 	7.250736e-01 	3.684829e+38 	
1.201958e+06 	6.569966e+03 	6.358450e+08 	7.338836e-01 	3.684828e+38 	
1.201964e+06 	6.491015e+03 	6.340042e+08 	7.428005e-01 	3.684828e+38 	
1.201971e+06 	6.413013e+03 	6.321692e+08 	7.518259e-01 	3.684827e+38 	
1.201978e+06 	6.335948e+03 	6.303400e+08 	7.609609e-01 	3.684826e+38 	
1.201984e+06 	6.259809e+03 	6.285165e+08 	7.702069e-01 	3.684826e+38 	
1.201991e+06 	6.184585e+03 	6.266988e+08 	7.795653e-01 	3.684825e+38 	
1.201998e+06 	6.110265e+03 	6.248868e+08 	7.890374e-01 	3.684824e+38 	
1.202004e+06 	6.036839e+03 	6.230806e+08 	7.986246e-01 	3.684824e+38 	
1.202011e+06 	5.964294e+03 	6.212800e+08 	8.083283e-01 	3.684823e+38 	
1.202017e+06 	5.892622e+03 	6.194850e+08 	8.181499e-01 	3.684822e+38 	
1.202024e+06 	5.821810e+03 	6.176957e+08 	8.280908e-01 	3.684822e+38 	
1.202031e+06 	5.751850e+03 	6.159120e+08 	8.381526e-01 	3.684821e+38 	
1.202037e+06 	5.682730e+03 	6.141339e+08 	8.483366e-01 	3.684820e+38 	
1.202044e+06 	5.614441e+03 	6.123614e+08 	8.586444e-01 	3.684820e+38 	
1.202050e+06 	5.546973e+03 	6.105946e+08 	8.690774e-01 	3.684819e+38 	
1.202057e+06 	5.480315e+03 	6.088333e+08 	8.796372e-01 	3.684818e+38 	
1.202063e+06 	5.414459e+03 	6.070776e+08 	8.903254e-01 	3.684818e+38 	
1.202070e+06 	5.349393e+03 	6.053274e+08 	9.011434e-01 	3.684817e+38 	
1.202076e+06 	5.285110e+03 	6.035827e+08 	9.120929e-01 	3.684816e+38 	
1.202083e+06 	5.221599e+03 	6.018434e+08 	9.231754e-01 	3.684816e+38 	
1.202089e+06 	5.158851e+03 	6.001097e+08 	9.343926e-01 	3.684815e+38 	
1.202096e+06 	5.096858e+03 	5.983814e+08 	9.457461e-01 	3.684814e+38 	
1.202102e+06 	5.035609e+03 	5.966586e+08 	9.572376e-01 	3.684814e+38 	
1.202109e+06 	4.975096e+03 	5.949412e+08 	9.688687e-01 	3.684813e+38 	
1.202115e+06 	4.915311e+03 	5.932292e+08 	9.806412e-01 	3.684812e+38 	
1.202122e+06 	4.856244e+03 	5.915226e+08 	9.925567e-01 	3.684812e+38 	
1.202128e+06 	4.797887e+03 	5.898214e+08 	1.004617e+00 	3.684811e+38 	
1.202135e+06 	4.740231e+03 	5.881255e+08 	1.016824e+00 	3.684810e+38 	
1.202141e+06 	4.683268e+03 	5.864349e+08 	1.029179e+00 	3.684810e+38 	
1.202148e+06 	4.626989e+03 	5.847497e+08 	1.041684e+00 	3.684809e+38 	
1.202154e+06 	4.571387e+03 	5.830699e+08 	1.054342e+00 	3.684808e+38 	
1.202161e+06 	4.516453e+03 	5.813953e+08 	1.067153e+00 	3.684808e+38 	
1.202167e+06 	4.462179e+03 	5.797261e+08 	1.080120e+00 	3.684807e+38 	
1.202174e+06 	4.408557e+03 	5.780621e+08 	1.093244e+00 	3.684806e+38 	
1.202180e+06 	4.355580e+03 	5.764033e+08 	1.106528e+00 	3.684806e+38 	
1.202186e+06 	4.303239e+03 	5.747497e+08 	1.119973e+00 	3.684805e+38 	
1.202193e+06 	4.251527e+03 	5.731013e+08 	1.133582e+00 	3.684804e+38 	
1.202199e+06 	4.200437e+03 	5.714581e+08 	1.147356e+00 	3.684804e+38 	
1.202206e+06 	4.149960e+03 	5.698202e+08 	1.161297e+00 	3.684803e+38 	
1.202212e+06 	4.100090e+03 	5.681874e+08 	1.175408e+00 	3.684802e+38 	
1.202218e+06 	4.050820e+03 	5.665598e+08 	1.189690e+00 	3.684802e+38 	
1.202225e+06 	4.002141e+03 	5.649373e+08 	1.204146e+00 	3.684801e+38 	
1.202231e+06 	3.954048e+03 	5.633200e+08 	1.218778e+00 	3.684800e+38 	
