r (cm)      	rho (g/cm3) 	T (K)       	u (cm/s)    	L* (erg/s)  			 Edot= 4.366547e+38
1.200296e+06 	1.143136e+05 	1.287279e+09 	5.326640e-02 	3.718633e+38 	
1.200305e+06 	1.129668e+05 	1.283480e+09 	5.390047e-02 	3.718632e+38 	
1.200315e+06 	1.116359e+05 	1.279693e+09 	5.454210e-02 	3.718631e+38 	
1.200324e+06 	1.103206e+05 	1.275918e+09 	5.519137e-02 	3.718630e+38 	
1.200334e+06 	1.090208e+05 	1.272154e+09 	5.584836e-02 	3.718629e+38 	
1.200343e+06 	1.077364e+05 	1.268402e+09 	5.651318e-02 	3.718628e+38 	
1.200353e+06 	1.064671e+05 	1.264661e+09 	5.718592e-02 	3.718627e+38 	
1.200362e+06 	1.052127e+05 	1.260932e+09 	5.786667e-02 	3.718626e+38 	
1.200372e+06 	1.039731e+05 	1.257214e+09 	5.855552e-02 	3.718625e+38 	
1.200381e+06 	1.027482e+05 	1.253508e+09 	5.925257e-02 	3.718624e+38 	
1.200390e+06 	1.015376e+05 	1.249813e+09 	5.995793e-02 	3.718623e+38 	
1.200400e+06 	1.003413e+05 	1.246129e+09 	6.067168e-02 	3.718623e+38 	
1.200409e+06 	9.915915e+04 	1.242457e+09 	6.139393e-02 	3.718622e+38 	
1.200418e+06 	9.799089e+04 	1.238796e+09 	6.212478e-02 	3.718621e+38 	
1.200428e+06 	9.683639e+04 	1.235146e+09 	6.286433e-02 	3.718620e+38 	
1.200437e+06 	9.569550e+04 	1.231507e+09 	6.361269e-02 	3.718619e+38 	
1.200446e+06 	9.456805e+04 	1.227879e+09 	6.436996e-02 	3.718618e+38 	
1.200456e+06 	9.345388e+04 	1.224263e+09 	6.513625e-02 	3.718617e+38 	
1.200465e+06 	9.235284e+04 	1.220657e+09 	6.591166e-02 	3.718616e+38 	
1.200474e+06 	9.126477e+04 	1.217063e+09 	6.669630e-02 	3.718615e+38 	
1.200483e+06 	9.018952e+04 	1.213480e+09 	6.749029e-02 	3.718614e+38 	
1.200493e+06 	8.912693e+04 	1.209907e+09 	6.829373e-02 	3.718613e+38 	
1.200502e+06 	8.807687e+04 	1.206346e+09 	6.910674e-02 	3.718612e+38 	
1.200511e+06 	8.703918e+04 	1.202796e+09 	6.992943e-02 	3.718611e+38 	
1.200520e+06 	8.601371e+04 	1.199256e+09 	7.076191e-02 	3.718610e+38 	
1.200529e+06 	8.500033e+04 	1.195727e+09 	7.160431e-02 	3.718610e+38 	
1.200538e+06 	8.399888e+04 	1.192209e+09 	7.245674e-02 	3.718609e+38 	
1.200547e+06 	8.300924e+04 	1.188702e+09 	7.331932e-02 	3.718608e+38 	
1.200557e+06 	8.203125e+04 	1.185206e+09 	7.419217e-02 	3.718607e+38 	
1.200566e+06 	8.106478e+04 	1.181720e+09 	7.507541e-02 	3.718606e+38 	
1.200575e+06 	8.010971e+04 	1.178245e+09 	7.596917e-02 	3.718605e+38 	
1.200584e+06 	7.916588e+04 	1.174781e+09 	7.687357e-02 	3.718604e+38 	
1.200593e+06 	7.823318e+04 	1.171327e+09 	7.778875e-02 	3.718603e+38 	
1.200602e+06 	7.731146e+04 	1.167884e+09 	7.871481e-02 	3.718602e+38 	
1.200611e+06 	7.640060e+04 	1.164452e+09 	7.965191e-02 	3.718601e+38 	
1.200620e+06 	7.550048e+04 	1.161030e+09 	8.060017e-02 	3.718600e+38 	
1.200629e+06 	7.461095e+04 	1.157618e+09 	8.155971e-02 	3.718599e+38 	
1.200638e+06 	7.373191e+04 	1.154217e+09 	8.253068e-02 	3.718598e+38 	
1.200647e+06 	7.286323e+04 	1.150827e+09 	8.351322e-02 	3.718598e+38 	
1.200656e+06 	7.200478e+04 	1.147447e+09 	8.450745e-02 	3.718597e+38 	
1.200664e+06 	7.115644e+04 	1.144077e+09 	8.551353e-02 	3.718596e+38 	
1.200673e+06 	7.031810e+04 	1.140717e+09 	8.653158e-02 	3.718595e+38 	
1.200682e+06 	6.948964e+04 	1.137368e+09 	8.756175e-02 	3.718594e+38 	
1.200691e+06 	6.867093e+04 	1.134029e+09 	8.860420e-02 	3.718593e+38 	
1.200700e+06 	6.786188e+04 	1.130700e+09 	8.965905e-02 	3.718592e+38 	
1.200709e+06 	6.706235e+04 	1.127382e+09 	9.072647e-02 	3.718591e+38 	
1.200717e+06 	6.627224e+04 	1.124074e+09 	9.180660e-02 	3.718590e+38 	
1.200726e+06 	6.549145e+04 	1.120775e+09 	9.289959e-02 	3.718589e+38 	
1.200735e+06 	6.471985e+04 	1.117487e+09 	9.400559e-02 	3.718589e+38 	
1.200744e+06 	6.395734e+04 	1.114209e+09 	9.512476e-02 	3.718588e+38 	
1.200753e+06 	6.320382e+04 	1.110941e+09 	9.625727e-02 	3.718587e+38 	
1.200761e+06 	6.245917e+04 	1.107683e+09 	9.740325e-02 	3.718586e+38 	
1.200770e+06 	6.172330e+04 	1.104436e+09 	9.856289e-02 	3.718585e+38 	
1.200779e+06 	6.099610e+04 	1.101198e+09 	9.973633e-02 	3.718584e+38 	
1.200787e+06 	6.027746e+04 	1.097970e+09 	1.009237e-01 	3.718583e+38 	
1.200796e+06 	5.956729e+04 	1.094752e+09 	1.021253e-01 	3.718582e+38 	
1.200805e+06 	5.886549e+04 	1.091543e+09 	1.033412e-01 	3.718581e+38 	
1.200813e+06 	5.817196e+04 	1.088345e+09 	1.045715e-01 	3.718580e+38 	
1.200822e+06 	5.748659e+04 	1.085156e+09 	1.058165e-01 	3.718580e+38 	
1.200831e+06 	5.680931e+04 	1.081977e+09 	1.070763e-01 	3.718579e+38 	
1.200839e+06 	5.614000e+04 	1.078808e+09 	1.083511e-01 	3.718578e+38 	
1.200848e+06 	5.547858e+04 	1.075649e+09 	1.096411e-01 	3.718577e+38 	
1.200856e+06 	5.482495e+04 	1.072500e+09 	1.109465e-01 	3.718576e+38 	
1.200865e+06 	5.417902e+04 	1.069360e+09 	1.122674e-01 	3.718575e+38 	
1.200873e+06 	5.354070e+04 	1.066229e+09 	1.136040e-01 	3.718574e+38 	
1.200882e+06 	5.290990e+04 	1.063108e+09 	1.149566e-01 	3.718573e+38 	
1.200890e+06 	5.228653e+04 	1.059997e+09 	1.163253e-01 	3.718572e+38 	
1.200899e+06 	5.167051e+04 	1.056895e+09 	1.177102e-01 	3.718571e+38 	
1.200907e+06 	5.106175e+04 	1.053803e+09 	1.191117e-01 	3.718571e+38 	
1.200916e+06 	5.046015e+04 	1.050721e+09 	1.205298e-01 	3.718570e+38 	
1.200924e+06 	4.986565e+04 	1.047648e+09 	1.219648e-01 	3.718569e+38 	
1.200933e+06 	4.927815e+04 	1.044584e+09 	1.234170e-01 	3.718568e+38 	
1.200941e+06 	4.869757e+04 	1.041530e+09 	1.248864e-01 	3.718567e+38 	
1.200950e+06 	4.812383e+04 	1.038485e+09 	1.263733e-01 	3.718566e+38 	
1.200958e+06 	4.755685e+04 	1.035449e+09 	1.278779e-01 	3.718565e+38 	
1.200966e+06 	4.699655e+04 	1.032423e+09 	1.294004e-01 	3.718564e+38 	
1.200975e+06 	4.644286e+04 	1.029406e+09 	1.309411e-01 	3.718563e+38 	
1.200983e+06 	4.589568e+04 	1.026398e+09 	1.325001e-01 	3.718563e+38 	
1.200991e+06 	4.535495e+04 	1.023399e+09 	1.340777e-01 	3.718562e+38 	
1.201000e+06 	4.482060e+04 	1.020410e+09 	1.356740e-01 	3.718561e+38 	
1.201008e+06 	4.429254e+04 	1.017430e+09 	1.372894e-01 	3.718560e+38 	
1.201016e+06 	4.377070e+04 	1.014459e+09 	1.389240e-01 	3.718559e+38 	
1.201025e+06 	4.325501e+04 	1.011497e+09 	1.405781e-01 	3.718558e+38 	
1.201033e+06 	4.274539e+04 	1.008544e+09 	1.422518e-01 	3.718557e+38 	
1.201041e+06 	4.224178e+04 	1.005600e+09 	1.439455e-01 	3.718556e+38 	
1.201049e+06 	4.174410e+04 	1.002665e+09 	1.456594e-01 	3.718556e+38 	
1.201058e+06 	4.125228e+04 	9.997398e+08 	1.473937e-01 	3.718555e+38 	
1.201066e+06 	4.076626e+04 	9.968231e+08 	1.491486e-01 	3.718554e+38 	
1.201074e+06 	4.028597e+04 	9.939153e+08 	1.509245e-01 	3.718553e+38 	
1.201082e+06 	3.981133e+04 	9.910164e+08 	1.527215e-01 	3.718552e+38 	
1.201090e+06 	3.934229e+04 	9.881263e+08 	1.545398e-01 	3.718551e+38 	
1.201099e+06 	3.887877e+04 	9.852452e+08 	1.563799e-01 	3.718550e+38 	
1.201107e+06 	3.842072e+04 	9.823728e+08 	1.582418e-01 	3.718549e+38 	
1.201115e+06 	3.796806e+04 	9.795094e+08 	1.601259e-01 	3.718549e+38 	
1.201123e+06 	3.752073e+04 	9.766548e+08 	1.620325e-01 	3.718548e+38 	
1.201131e+06 	3.707867e+04 	9.738090e+08 	1.639618e-01 	3.718547e+38 	
1.201139e+06 	3.664182e+04 	9.709718e+08 	1.659140e-01 	3.718546e+38 	
1.201147e+06 	3.621012e+04 	9.681433e+08 	1.678895e-01 	3.718545e+38 	
1.201155e+06 	3.578351e+04 	9.653235e+08 	1.698885e-01 	3.718544e+38 	
1.201163e+06 	3.536192e+04 	9.625124e+08 	1.719113e-01 	3.718543e+38 	
1.201171e+06 	3.494530e+04 	9.597098e+08 	1.739582e-01 	3.718542e+38 	
1.201180e+06 	3.453358e+04 	9.569160e+08 	1.760295e-01 	3.718542e+38 	
1.201188e+06 	3.412672e+04 	9.541307e+08 	1.781255e-01 	3.718541e+38 	
1.201196e+06 	3.372465e+04 	9.513540e+08 	1.802464e-01 	3.718540e+38 	
1.201204e+06 	3.332732e+04 	9.485857e+08 	1.823926e-01 	3.718539e+38 	
1.201212e+06 	3.293467e+04 	9.458260e+08 	1.845643e-01 	3.718538e+38 	
1.201219e+06 	3.254664e+04 	9.430747e+08 	1.867619e-01 	3.718537e+38 	
1.201227e+06 	3.216319e+04 	9.403318e+08 	1.889857e-01 	3.718536e+38 	
1.201235e+06 	3.178425e+04 	9.375973e+08 	1.912359e-01 	3.718536e+38 	
1.201243e+06 	3.140978e+04 	9.348714e+08 	1.935129e-01 	3.718535e+38 	
1.201251e+06 	3.103972e+04 	9.321538e+08 	1.958171e-01 	3.718534e+38 	
1.201259e+06 	3.067402e+04 	9.294445e+08 	1.981487e-01 	3.718533e+38 	
1.201267e+06 	3.031263e+04 	9.267436e+08 	2.005081e-01 	3.718532e+38 	
1.201275e+06 	2.995550e+04 	9.240509e+08 	2.028955e-01 	3.718531e+38 	
1.201283e+06 	2.960257e+04 	9.213664e+08 	2.053114e-01 	3.718530e+38 	
1.201291e+06 	2.925380e+04 	9.186902e+08 	2.077561e-01 	3.718530e+38 	
1.201299e+06 	2.890915e+04 	9.160222e+08 	2.102299e-01 	3.718529e+38 	
1.201306e+06 	2.856855e+04 	9.133624e+08 	2.127331e-01 	3.718528e+38 	
1.201314e+06 	2.823196e+04 	9.107108e+08 	2.152662e-01 	3.718527e+38 	
1.201322e+06 	2.789934e+04 	9.080674e+08 	2.178294e-01 	3.718526e+38 	
1.201330e+06 	2.757064e+04 	9.054321e+08 	2.204232e-01 	3.718525e+38 	
1.201338e+06 	2.724581e+04 	9.028049e+08 	2.230478e-01 	3.718524e+38 	
1.201345e+06 	2.692481e+04 	9.001857e+08 	2.257037e-01 	3.718523e+38 	
1.201353e+06 	2.660759e+04 	8.975745e+08 	2.283912e-01 	3.718523e+38 	
1.201361e+06 	2.629411e+04 	8.949714e+08 	2.311108e-01 	3.718522e+38 	
1.201369e+06 	2.598432e+04 	8.923762e+08 	2.338627e-01 	3.718521e+38 	
1.201376e+06 	2.567819e+04 	8.897891e+08 	2.366474e-01 	3.718520e+38 	
1.201384e+06 	2.537565e+04 	8.872100e+08 	2.394652e-01 	3.718519e+38 	
1.201392e+06 	2.507669e+04 	8.846387e+08 	2.423167e-01 	3.718518e+38 	
1.201399e+06 	2.478124e+04 	8.820754e+08 	2.452020e-01 	3.718517e+38 	
1.201407e+06 	2.448928e+04 	8.795198e+08 	2.481218e-01 	3.718517e+38 	
1.201415e+06 	2.420075e+04 	8.769721e+08 	2.510763e-01 	3.718516e+38 	
1.201422e+06 	2.391563e+04 	8.744323e+08 	2.540660e-01 	3.718515e+38 	
1.201430e+06 	2.363386e+04 	8.719002e+08 	2.570913e-01 	3.718514e+38 	
1.201438e+06 	2.335542e+04 	8.693759e+08 	2.601526e-01 	3.718513e+38 	
1.201445e+06 	2.308025e+04 	8.668595e+08 	2.632504e-01 	3.718512e+38 	
1.201453e+06 	2.280833e+04 	8.643507e+08 	2.663851e-01 	3.718512e+38 	
1.201461e+06 	2.253961e+04 	8.618497e+08 	2.695571e-01 	3.718511e+38 	
1.201468e+06 	2.227405e+04 	8.593563e+08 	2.727669e-01 	3.718510e+38 	
1.201476e+06 	2.201163e+04 	8.568706e+08 	2.760149e-01 	3.718509e+38 	
1.201483e+06 	2.175229e+04 	8.543925e+08 	2.793016e-01 	3.718508e+38 	
1.201491e+06 	2.149602e+04 	8.519220e+08 	2.826275e-01 	3.718507e+38 	
1.201498e+06 	2.124276e+04 	8.494591e+08 	2.859929e-01 	3.718506e+38 	
1.201506e+06 	2.099248e+04 	8.470039e+08 	2.893984e-01 	3.718506e+38 	
1.201513e+06 	2.074515e+04 	8.445562e+08 	2.928445e-01 	3.718505e+38 	
1.201521e+06 	2.050074e+04 	8.421159e+08 	2.963317e-01 	3.718504e+38 	
1.201528e+06 	2.025921e+04 	8.396832e+08 	2.998603e-01 	3.718503e+38 	
1.201536e+06 	2.002052e+04 	8.372579e+08 	3.034310e-01 	3.718502e+38 	
1.201543e+06 	1.978465e+04 	8.348401e+08 	3.070442e-01 	3.718501e+38 	
1.201551e+06 	1.955155e+04 	8.324297e+08 	3.107005e-01 	3.718500e+38 	
1.201558e+06 	1.932120e+04 	8.300267e+08 	3.144003e-01 	3.718500e+38 	
1.201566e+06 	1.909357e+04 	8.276312e+08 	3.181441e-01 	3.718499e+38 	
1.201573e+06 	1.886861e+04 	8.252430e+08 	3.219326e-01 	3.718498e+38 	
1.201581e+06 	1.864631e+04 	8.228622e+08 	3.257661e-01 	3.718497e+38 	
1.201588e+06 	1.842662e+04 	8.204886e+08 	3.296454e-01 	3.718496e+38 	
1.201595e+06 	1.820953e+04 	8.181223e+08 	3.335708e-01 	3.718495e+38 	
1.201603e+06 	1.799499e+04 	8.157633e+08 	3.375429e-01 	3.718495e+38 	
1.201610e+06 	1.778298e+04 	8.134115e+08 	3.415624e-01 	3.718494e+38 	
1.201618e+06 	1.757346e+04 	8.110670e+08 	3.456298e-01 	3.718493e+38 	
1.201625e+06 	1.736642e+04 	8.087297e+08 	3.497456e-01 	3.718492e+38 	
1.201632e+06 	1.716181e+04 	8.063997e+08 	3.539104e-01 	3.718491e+38 	
1.201640e+06 	1.695962e+04 	8.040767e+08 	3.581248e-01 	3.718490e+38 	
1.201647e+06 	1.675981e+04 	8.017610e+08 	3.623894e-01 	3.718490e+38 	
1.201654e+06 	1.656235e+04 	7.994523e+08 	3.667048e-01 	3.718489e+38 	
1.201662e+06 	1.636722e+04 	7.971507e+08 	3.710716e-01 	3.718488e+38 	
1.201669e+06 	1.617438e+04 	7.948562e+08 	3.754904e-01 	3.718487e+38 	
1.201676e+06 	1.598382e+04 	7.925687e+08 	3.799618e-01 	3.718486e+38 	
1.201683e+06 	1.579551e+04 	7.902883e+08 	3.844865e-01 	3.718485e+38 	
1.201691e+06 	1.560941e+04 	7.880149e+08 	3.890650e-01 	3.718484e+38 	
1.201698e+06 	1.542550e+04 	7.857485e+08 	3.936981e-01 	3.718484e+38 	
1.201705e+06 	1.524377e+04 	7.834891e+08 	3.983864e-01 	3.718483e+38 	
1.201712e+06 	1.506417e+04 	7.812367e+08 	4.031305e-01 	3.718482e+38 	
1.201720e+06 	1.488669e+04 	7.789911e+08 	4.079311e-01 	3.718481e+38 	
1.201727e+06 	1.471130e+04 	7.767524e+08 	4.127889e-01 	3.718480e+38 	
1.201734e+06 	1.453798e+04 	7.745206e+08 	4.177046e-01 	3.718479e+38 	
1.201741e+06 	1.436669e+04 	7.722957e+08 	4.226788e-01 	3.718479e+38 	
1.201749e+06 	1.419743e+04 	7.700776e+08 	4.277122e-01 	3.718478e+38 	
1.201756e+06 	1.403016e+04 	7.678665e+08 	4.328056e-01 	3.718477e+38 	
1.201763e+06 	1.386486e+04 	7.656621e+08 	4.379596e-01 	3.718476e+38 	
1.201770e+06 	1.370151e+04 	7.634645e+08 	4.431750e-01 	3.718475e+38 	
1.201777e+06 	1.354008e+04 	7.612736e+08 	4.484526e-01 	3.718474e+38 	
1.201784e+06 	1.338056e+04 	7.590894e+08 	4.537930e-01 	3.718474e+38 	
1.201791e+06 	1.322291e+04 	7.569120e+08 	4.591970e-01 	3.718473e+38 	
1.201799e+06 	1.306713e+04 	7.547412e+08 	4.646654e-01 	3.718472e+38 	
1.201806e+06 	1.291317e+04 	7.525772e+08 	4.701989e-01 	3.718471e+38 	
1.201813e+06 	1.276104e+04 	7.504199e+08 	4.757983e-01 	3.718470e+38 	
1.201820e+06 	1.261069e+04 	7.482692e+08 	4.814644e-01 	3.718469e+38 	
1.201827e+06 	1.246211e+04 	7.461251e+08 	4.871979e-01 	3.718468e+38 	
1.201834e+06 	1.231529e+04 	7.439876e+08 	4.929998e-01 	3.718468e+38 	
1.201841e+06 	1.217020e+04 	7.418566e+08 	4.988708e-01 	3.718467e+38 	
1.201848e+06 	1.202681e+04 	7.397322e+08 	5.048116e-01 	3.718466e+38 	
1.201855e+06 	1.188511e+04 	7.376144e+08 	5.108233e-01 	3.718465e+38 	
1.201862e+06 	1.174509e+04 	7.355031e+08 	5.169065e-01 	3.718464e+38 	
1.201869e+06 	1.160671e+04 	7.333983e+08 	5.230622e-01 	3.718463e+38 	
1.201876e+06 	1.146997e+04 	7.313000e+08 	5.292912e-01 	3.718463e+38 	
1.201883e+06 	1.133483e+04 	7.292082e+08 	5.355944e-01 	3.718462e+38 	
1.201890e+06 	1.120129e+04 	7.271228e+08 	5.419727e-01 	3.718461e+38 	
1.201897e+06 	1.106932e+04 	7.250437e+08 	5.484270e-01 	3.718460e+38 	
1.201904e+06 	1.093890e+04 	7.229711e+08 	5.549581e-01 	3.718459e+38 	
1.201911e+06 	1.081002e+04 	7.209048e+08 	5.615670e-01 	3.718458e+38 	
1.201918e+06 	1.068266e+04 	7.188449e+08 	5.682546e-01 	3.718458e+38 	
1.201925e+06 	1.055680e+04 	7.167915e+08 	5.750218e-01 	3.718457e+38 	
1.201932e+06 	1.043243e+04 	7.147443e+08 	5.818697e-01 	3.718456e+38 	
1.201939e+06 	1.030952e+04 	7.127035e+08 	5.887991e-01 	3.718455e+38 	
1.201946e+06 	1.018805e+04 	7.106689e+08 	5.958111e-01 	3.718454e+38 	
1.201953e+06 	1.006802e+04 	7.086406e+08 	6.029066e-01 	3.718453e+38 	
1.201960e+06 	9.949402e+03 	7.066185e+08 	6.100865e-01 	3.718453e+38 	
1.201967e+06 	9.832182e+03 	7.046026e+08 	6.173520e-01 	3.718452e+38 	
1.201974e+06 	9.716342e+03 	7.025930e+08 	6.247041e-01 	3.718451e+38 	
1.201981e+06 	9.601868e+03 	7.005895e+08 	6.321437e-01 	3.718450e+38 	
1.201987e+06 	9.488742e+03 	6.985923e+08 	6.396719e-01 	3.718449e+38 	
1.201994e+06 	9.376949e+03 	6.966012e+08 	6.472897e-01 	3.718448e+38 	
1.202001e+06 	9.266472e+03 	6.946163e+08 	6.549983e-01 	3.718448e+38 	
1.202008e+06 	9.157298e+03 	6.926374e+08 	6.627988e-01 	3.718447e+38 	
1.202015e+06 	9.049410e+03 	6.906647e+08 	6.706921e-01 	3.718446e+38 	
1.202022e+06 	8.942793e+03 	6.886979e+08 	6.786794e-01 	3.718445e+38 	
1.202029e+06 	8.837432e+03 	6.867373e+08 	6.867619e-01 	3.718444e+38 	
1.202035e+06 	8.733312e+03 	6.847827e+08 	6.949406e-01 	3.718443e+38 	
1.202042e+06 	8.630419e+03 	6.828342e+08 	7.032168e-01 	3.718443e+38 	
1.202049e+06 	8.528738e+03 	6.808917e+08 	7.115915e-01 	3.718442e+38 	
1.202056e+06 	8.428256e+03 	6.789552e+08 	7.200659e-01 	3.718441e+38 	
1.202063e+06 	8.328957e+03 	6.770246e+08 	7.286413e-01 	3.718440e+38 	
1.202069e+06 	8.230828e+03 	6.751000e+08 	7.373189e-01 	3.718439e+38 	
1.202076e+06 	8.133855e+03 	6.731813e+08 	7.460998e-01 	3.718438e+38 	
1.202083e+06 	8.038025e+03 	6.712685e+08 	7.549852e-01 	3.718438e+38 	
1.202090e+06 	7.943323e+03 	6.693616e+08 	7.639765e-01 	3.718437e+38 	
1.202096e+06 	7.849738e+03 	6.674607e+08 	7.730749e-01 	3.718436e+38 	
1.202103e+06 	7.757255e+03 	6.655656e+08 	7.822817e-01 	3.718435e+38 	
1.202110e+06 	7.665862e+03 	6.636763e+08 	7.915981e-01 	3.718434e+38 	
1.202117e+06 	7.575545e+03 	6.617929e+08 	8.010255e-01 	3.718433e+38 	
1.202123e+06 	7.486292e+03 	6.599152e+08 	8.105652e-01 	3.718433e+38 	
1.202130e+06 	7.398091e+03 	6.580434e+08 	8.202185e-01 	3.718432e+38 	
1.202137e+06 	7.310930e+03 	6.561773e+08 	8.299868e-01 	3.718431e+38 	
1.202143e+06 	7.224795e+03 	6.543169e+08 	8.398714e-01 	3.718430e+38 	
1.202150e+06 	7.139675e+03 	6.524624e+08 	8.498737e-01 	3.718429e+38 	
1.202157e+06 	7.055557e+03 	6.506136e+08 	8.599952e-01 	3.718428e+38 	
1.202163e+06 	6.972431e+03 	6.487705e+08 	8.702372e-01 	3.718427e+38 	
1.202170e+06 	6.890284e+03 	6.469330e+08 	8.806013e-01 	3.718427e+38 	
1.202177e+06 	6.809105e+03 	6.451013e+08 	8.910887e-01 	3.718426e+38 	
1.202183e+06 	6.728883e+03 	6.432751e+08 	9.017011e-01 	3.718425e+38 	
1.202190e+06 	6.649605e+03 	6.414546e+08 	9.124399e-01 	3.718424e+38 	
1.202197e+06 	6.571262e+03 	6.396397e+08 	9.233066e-01 	3.718423e+38 	
1.202203e+06 	6.493842e+03 	6.378304e+08 	9.343027e-01 	3.718422e+38 	
1.202210e+06 	6.417333e+03 	6.360268e+08 	9.454298e-01 	3.718422e+38 	
1.202217e+06 	6.341726e+03 	6.342287e+08 	9.566894e-01 	3.718421e+38 	
1.202223e+06 	6.267010e+03 	6.324362e+08 	9.680832e-01 	3.718420e+38 	
1.202230e+06 	6.193175e+03 	6.306492e+08 	9.796126e-01 	3.718419e+38 	
1.202236e+06 	6.120209e+03 	6.288677e+08 	9.912794e-01 	3.718418e+38 	
1.202243e+06 	6.048102e+03 	6.270917e+08 	1.003085e+00 	3.718417e+38 	
1.202249e+06 	5.976846e+03 	6.253212e+08 	1.015031e+00 	3.718417e+38 	
1.202256e+06 	5.906429e+03 	6.235561e+08 	1.027120e+00 	3.718416e+38 	
1.202263e+06 	5.836841e+03 	6.217966e+08 	1.039353e+00 	3.718415e+38 	
1.202269e+06 	5.768073e+03 	6.200425e+08 	1.051731e+00 	3.718414e+38 	
1.202276e+06 	5.700116e+03 	6.182938e+08 	1.064257e+00 	3.718413e+38 	
1.202282e+06 	5.632959e+03 	6.165505e+08 	1.076932e+00 	3.718412e+38 	
1.202289e+06 	5.566593e+03 	6.148126e+08 	1.089758e+00 	3.718412e+38 	
1.202295e+06 	5.501010e+03 	6.130800e+08 	1.102736e+00 	3.718411e+38 	
1.202302e+06 	5.436199e+03 	6.113527e+08 	1.115870e+00 	3.718410e+38 	
1.202308e+06 	5.372151e+03 	6.096308e+08 	1.129159e+00 	3.718409e+38 	
1.202315e+06 	5.308858e+03 	6.079143e+08 	1.142607e+00 	3.718408e+38 	
1.202321e+06 	5.246311e+03 	6.062031e+08 	1.156215e+00 	3.718407e+38 	
1.202328e+06 	5.184501e+03 	6.044972e+08 	1.169986e+00 	3.718406e+38 	
1.202334e+06 	5.123419e+03 	6.027966e+08 	1.183920e+00 	3.718406e+38 	
1.202341e+06 	5.063056e+03 	6.011012e+08 	1.198020e+00 	3.718405e+38 	
1.202347e+06 	5.003405e+03 	5.994110e+08 	1.212288e+00 	3.718404e+38 	
1.202354e+06 	4.944457e+03 	5.977261e+08 	1.226726e+00 	3.718403e+38 	
1.202360e+06 	4.886203e+03 	5.960463e+08 	1.241336e+00 	3.718402e+38 	
1.202367e+06 	4.828635e+03 	5.943718e+08 	1.256121e+00 	3.718401e+38 	
1.202373e+06 	4.771746e+03 	5.927025e+08 	1.271081e+00 	3.718401e+38 	
1.202379e+06 	4.715527e+03 	5.910383e+08 	1.286219e+00 	3.718400e+38 	
1.202386e+06 	4.659970e+03 	5.893793e+08 	1.301538e+00 	3.718399e+38 	
1.202392e+06 	4.605068e+03 	5.877254e+08 	1.317039e+00 	3.718398e+38 	
1.202399e+06 	4.550812e+03 	5.860766e+08 	1.332725e+00 	3.718397e+38 	
1.202405e+06 	4.497196e+03 	5.844330e+08 	1.348598e+00 	3.718396e+38 	
1.202412e+06 	4.444212e+03 	5.827943e+08 	1.364659e+00 	3.718396e+38 	
1.202418e+06 	4.391852e+03 	5.811608e+08 	1.380912e+00 	3.718395e+38 	
1.202424e+06 	4.340108e+03 	5.795324e+08 	1.397359e+00 	3.718394e+38 	
1.202431e+06 	4.288975e+03 	5.779090e+08 	1.414001e+00 	3.718393e+38 	
1.202437e+06 	4.238443e+03 	5.762907e+08 	1.430842e+00 	3.718392e+38 	
1.202443e+06 	4.188507e+03 	5.746773e+08 	1.447883e+00 	3.718391e+38 	
