r (cm)      	rho (g/cm3) 	T (K)       	u (cm/s)    	L* (erg/s)  			 Edot= 4.700894e+38
1.200001e+06 	1.125037e+05 	1.292326e+09 	7.649376e-02 	3.785742e+38 	
1.200010e+06 	1.112151e+05 	1.288632e+09 	7.737867e-02 	3.785741e+38 	
1.200020e+06 	1.099413e+05 	1.284948e+09 	7.827381e-02 	3.785739e+38 	
1.200029e+06 	1.086821e+05 	1.281276e+09 	7.917931e-02 	3.785738e+38 	
1.200038e+06 	1.074373e+05 	1.277614e+09 	8.009529e-02 	3.785737e+38 	
1.200048e+06 	1.062068e+05 	1.273963e+09 	8.102186e-02 	3.785735e+38 	
1.200057e+06 	1.049903e+05 	1.270324e+09 	8.195916e-02 	3.785734e+38 	
1.200066e+06 	1.037878e+05 	1.266695e+09 	8.290730e-02 	3.785733e+38 	
1.200076e+06 	1.025991e+05 	1.263077e+09 	8.386642e-02 	3.785731e+38 	
1.200085e+06 	1.014239e+05 	1.259469e+09 	8.483663e-02 	3.785730e+38 	
1.200094e+06 	1.002623e+05 	1.255872e+09 	8.581807e-02 	3.785729e+38 	
1.200103e+06 	9.911392e+04 	1.252287e+09 	8.681087e-02 	3.785727e+38 	
1.200113e+06 	9.797871e+04 	1.248712e+09 	8.781515e-02 	3.785726e+38 	
1.200122e+06 	9.685651e+04 	1.245147e+09 	8.883106e-02 	3.785725e+38 	
1.200131e+06 	9.574716e+04 	1.241593e+09 	8.985872e-02 	3.785723e+38 	
1.200140e+06 	9.465051e+04 	1.238050e+09 	9.089827e-02 	3.785722e+38 	
1.200149e+06 	9.356643e+04 	1.234517e+09 	9.194985e-02 	3.785721e+38 	
1.200158e+06 	9.249476e+04 	1.230995e+09 	9.301360e-02 	3.785720e+38 	
1.200168e+06 	9.143537e+04 	1.227483e+09 	9.408966e-02 	3.785718e+38 	
1.200177e+06 	9.038811e+04 	1.223982e+09 	9.517817e-02 	3.785717e+38 	
1.200186e+06 	8.935284e+04 	1.220491e+09 	9.627928e-02 	3.785716e+38 	
1.200195e+06 	8.832944e+04 	1.217011e+09 	9.739313e-02 	3.785714e+38 	
1.200204e+06 	8.731775e+04 	1.213541e+09 	9.851986e-02 	3.785713e+38 	
1.200213e+06 	8.631766e+04 	1.210081e+09 	9.965964e-02 	3.785712e+38 	
1.200222e+06 	8.532901e+04 	1.206632e+09 	1.008126e-01 	3.785710e+38 	
1.200231e+06 	8.435169e+04 	1.203192e+09 	1.019789e-01 	3.785709e+38 	
1.200240e+06 	8.338557e+04 	1.199764e+09 	1.031587e-01 	3.785708e+38 	
1.200249e+06 	8.243051e+04 	1.196345e+09 	1.043522e-01 	3.785706e+38 	
1.200258e+06 	8.148638e+04 	1.192937e+09 	1.055594e-01 	3.785705e+38 	
1.200267e+06 	8.055308e+04 	1.189538e+09 	1.067807e-01 	3.785704e+38 	
1.200276e+06 	7.963046e+04 	1.186150e+09 	1.080160e-01 	3.785703e+38 	
1.200285e+06 	7.871841e+04 	1.182772e+09 	1.092657e-01 	3.785701e+38 	
1.200294e+06 	7.781680e+04 	1.179404e+09 	1.105298e-01 	3.785700e+38 	
1.200303e+06 	7.692552e+04 	1.176046e+09 	1.118086e-01 	3.785699e+38 	
1.200311e+06 	7.604445e+04 	1.172699e+09 	1.131021e-01 	3.785697e+38 	
1.200320e+06 	7.517348e+04 	1.169361e+09 	1.144106e-01 	3.785696e+38 	
1.200329e+06 	7.431247e+04 	1.166033e+09 	1.157343e-01 	3.785695e+38 	
1.200338e+06 	7.346133e+04 	1.162715e+09 	1.170733e-01 	3.785693e+38 	
1.200347e+06 	7.261994e+04 	1.159407e+09 	1.184277e-01 	3.785692e+38 	
1.200356e+06 	7.178818e+04 	1.156108e+09 	1.197979e-01 	3.785691e+38 	
1.200364e+06 	7.096596e+04 	1.152820e+09 	1.211839e-01 	3.785690e+38 	
1.200373e+06 	7.015314e+04 	1.149541e+09 	1.225859e-01 	3.785688e+38 	
1.200382e+06 	6.934964e+04 	1.146272e+09 	1.240042e-01 	3.785687e+38 	
1.200391e+06 	6.855534e+04 	1.143013e+09 	1.254388e-01 	3.785686e+38 	
1.200399e+06 	6.777014e+04 	1.139764e+09 	1.268901e-01 	3.785684e+38 	
1.200408e+06 	6.699393e+04 	1.136524e+09 	1.283582e-01 	3.785683e+38 	
1.200417e+06 	6.622661e+04 	1.133294e+09 	1.298432e-01 	3.785682e+38 	
1.200425e+06 	6.546808e+04 	1.130074e+09 	1.313455e-01 	3.785681e+38 	
1.200434e+06 	6.471824e+04 	1.126863e+09 	1.328651e-01 	3.785679e+38 	
1.200443e+06 	6.397699e+04 	1.123662e+09 	1.344023e-01 	3.785678e+38 	
1.200451e+06 	6.324423e+04 	1.120470e+09 	1.359573e-01 	3.785677e+38 	
1.200460e+06 	6.251986e+04 	1.117288e+09 	1.375303e-01 	3.785676e+38 	
1.200469e+06 	6.180378e+04 	1.114115e+09 	1.391215e-01 	3.785674e+38 	
1.200477e+06 	6.109591e+04 	1.110952e+09 	1.407311e-01 	3.785673e+38 	
1.200486e+06 	6.039615e+04 	1.107798e+09 	1.423594e-01 	3.785672e+38 	
1.200494e+06 	5.970440e+04 	1.104654e+09 	1.440065e-01 	3.785670e+38 	
1.200503e+06 	5.902057e+04 	1.101519e+09 	1.456726e-01 	3.785669e+38 	
1.200512e+06 	5.834457e+04 	1.098394e+09 	1.473580e-01 	3.785668e+38 	
1.200520e+06 	5.767632e+04 	1.095277e+09 	1.490630e-01 	3.785667e+38 	
1.200529e+06 	5.701572e+04 	1.092170e+09 	1.507876e-01 	3.785665e+38 	
1.200537e+06 	5.636269e+04 	1.089072e+09 	1.525322e-01 	3.785664e+38 	
1.200546e+06 	5.571714e+04 	1.085984e+09 	1.542971e-01 	3.785663e+38 	
1.200554e+06 	5.507898e+04 	1.082905e+09 	1.560823e-01 	3.785662e+38 	
1.200562e+06 	5.444813e+04 	1.079835e+09 	1.578882e-01 	3.785660e+38 	
1.200571e+06 	5.382451e+04 	1.076774e+09 	1.597150e-01 	3.785659e+38 	
1.200579e+06 	5.320802e+04 	1.073722e+09 	1.615629e-01 	3.785658e+38 	
1.200588e+06 	5.259860e+04 	1.070679e+09 	1.634322e-01 	3.785656e+38 	
1.200596e+06 	5.199616e+04 	1.067646e+09 	1.653231e-01 	3.785655e+38 	
1.200605e+06 	5.140062e+04 	1.064621e+09 	1.672360e-01 	3.785654e+38 	
1.200613e+06 	5.081190e+04 	1.061605e+09 	1.691709e-01 	3.785653e+38 	
1.200621e+06 	5.022993e+04 	1.058599e+09 	1.711283e-01 	3.785651e+38 	
1.200630e+06 	4.965462e+04 	1.055601e+09 	1.731083e-01 	3.785650e+38 	
1.200638e+06 	4.908590e+04 	1.052613e+09 	1.751112e-01 	3.785649e+38 	
1.200646e+06 	4.852369e+04 	1.049633e+09 	1.771373e-01 	3.785648e+38 	
1.200655e+06 	4.796792e+04 	1.046662e+09 	1.791869e-01 	3.785646e+38 	
1.200663e+06 	4.741852e+04 	1.043700e+09 	1.812601e-01 	3.785645e+38 	
1.200671e+06 	4.687541e+04 	1.040747e+09 	1.833574e-01 	3.785644e+38 	
1.200679e+06 	4.633852e+04 	1.037803e+09 	1.854789e-01 	3.785643e+38 	
1.200688e+06 	4.580778e+04 	1.034867e+09 	1.876250e-01 	3.785641e+38 	
1.200696e+06 	4.528312e+04 	1.031940e+09 	1.897959e-01 	3.785640e+38 	
1.200704e+06 	4.476446e+04 	1.029022e+09 	1.919920e-01 	3.785639e+38 	
1.200712e+06 	4.425175e+04 	1.026113e+09 	1.942134e-01 	3.785638e+38 	
1.200721e+06 	4.374491e+04 	1.023213e+09 	1.964606e-01 	3.785636e+38 	
1.200729e+06 	4.324388e+04 	1.020321e+09 	1.987338e-01 	3.785635e+38 	
1.200737e+06 	4.274858e+04 	1.017437e+09 	2.010332e-01 	3.785634e+38 	
1.200745e+06 	4.225896e+04 	1.014562e+09 	2.033593e-01 	3.785633e+38 	
1.200753e+06 	4.177495e+04 	1.011696e+09 	2.057123e-01 	3.785631e+38 	
1.200761e+06 	4.129647e+04 	1.008839e+09 	2.080926e-01 	3.785630e+38 	
1.200770e+06 	4.082348e+04 	1.005989e+09 	2.105004e-01 	3.785629e+38 	
1.200778e+06 	4.035591e+04 	1.003149e+09 	2.129360e-01 	3.785628e+38 	
1.200786e+06 	3.989369e+04 	1.000317e+09 	2.153998e-01 	3.785626e+38 	
1.200794e+06 	3.943677e+04 	9.974933e+08 	2.178922e-01 	3.785625e+38 	
1.200802e+06 	3.898508e+04 	9.946781e+08 	2.204134e-01 	3.785624e+38 	
1.200810e+06 	3.853856e+04 	9.918712e+08 	2.229638e-01 	3.785623e+38 	
1.200818e+06 	3.809716e+04 	9.890727e+08 	2.255436e-01 	3.785621e+38 	
1.200826e+06 	3.766081e+04 	9.862826e+08 	2.281534e-01 	3.785620e+38 	
1.200834e+06 	3.722946e+04 	9.835009e+08 	2.307933e-01 	3.785619e+38 	
1.200842e+06 	3.680305e+04 	9.807275e+08 	2.334638e-01 	3.785618e+38 	
1.200850e+06 	3.638152e+04 	9.779623e+08 	2.361652e-01 	3.785617e+38 	
1.200858e+06 	3.596483e+04 	9.752055e+08 	2.388979e-01 	3.785615e+38 	
1.200866e+06 	3.555290e+04 	9.724568e+08 	2.416622e-01 	3.785614e+38 	
1.200874e+06 	3.514570e+04 	9.697163e+08 	2.444585e-01 	3.785613e+38 	
1.200882e+06 	3.474315e+04 	9.669840e+08 	2.472871e-01 	3.785612e+38 	
1.200890e+06 	3.434522e+04 	9.642598e+08 	2.501485e-01 	3.785610e+38 	
1.200898e+06 	3.395185e+04 	9.615437e+08 	2.530430e-01 	3.785609e+38 	
1.200906e+06 	3.356298e+04 	9.588358e+08 	2.559710e-01 	3.785608e+38 	
1.200914e+06 	3.317856e+04 	9.561361e+08 	2.589329e-01 	3.785607e+38 	
1.200922e+06 	3.279855e+04 	9.534444e+08 	2.619291e-01 	3.785605e+38 	
1.200930e+06 	3.242289e+04 	9.507607e+08 	2.649599e-01 	3.785604e+38 	
1.200937e+06 	3.205153e+04 	9.480850e+08 	2.680258e-01 	3.785603e+38 	
1.200945e+06 	3.168443e+04 	9.454173e+08 	2.711272e-01 	3.785602e+38 	
1.200953e+06 	3.132153e+04 	9.427575e+08 	2.742645e-01 	3.785600e+38 	
1.200961e+06 	3.096279e+04 	9.401057e+08 	2.774381e-01 	3.785599e+38 	
1.200969e+06 	3.060815e+04 	9.374618e+08 	2.806484e-01 	3.785598e+38 	
1.200977e+06 	3.025758e+04 	9.348259e+08 	2.838959e-01 	3.785597e+38 	
1.200984e+06 	2.991103e+04 	9.321978e+08 	2.871809e-01 	3.785596e+38 	
1.200992e+06 	2.956844e+04 	9.295776e+08 	2.905040e-01 	3.785594e+38 	
1.201000e+06 	2.922978e+04 	9.269652e+08 	2.938656e-01 	3.785593e+38 	
1.201008e+06 	2.889499e+04 	9.243606e+08 	2.972660e-01 	3.785592e+38 	
1.201016e+06 	2.856404e+04 	9.217637e+08 	3.007058e-01 	3.785591e+38 	
1.201023e+06 	2.823688e+04 	9.191746e+08 	3.041854e-01 	3.785589e+38 	
1.201031e+06 	2.791347e+04 	9.165932e+08 	3.077053e-01 	3.785588e+38 	
1.201039e+06 	2.759376e+04 	9.140196e+08 	3.112659e-01 	3.785587e+38 	
1.201046e+06 	2.727771e+04 	9.114537e+08 	3.148677e-01 	3.785586e+38 	
1.201054e+06 	2.696529e+04 	9.088954e+08 	3.185112e-01 	3.785585e+38 	
1.201062e+06 	2.665644e+04 	9.063448e+08 	3.221969e-01 	3.785583e+38 	
1.201069e+06 	2.635113e+04 	9.038018e+08 	3.259253e-01 	3.785582e+38 	
1.201077e+06 	2.604932e+04 	9.012664e+08 	3.296967e-01 	3.785581e+38 	
1.201085e+06 	2.575096e+04 	8.987385e+08 	3.335119e-01 	3.785580e+38 	
1.201092e+06 	2.545602e+04 	8.962181e+08 	3.373712e-01 	3.785578e+38 	
1.201100e+06 	2.516446e+04 	8.937053e+08 	3.412751e-01 	3.785577e+38 	
1.201108e+06 	2.487623e+04 	8.912001e+08 	3.452242e-01 	3.785576e+38 	
1.201115e+06 	2.459131e+04 	8.887024e+08 	3.492191e-01 	3.785575e+38 	
1.201123e+06 	2.430966e+04 	8.862122e+08 	3.532602e-01 	3.785574e+38 	
1.201131e+06 	2.403122e+04 	8.837293e+08 	3.573480e-01 	3.785572e+38 	
1.201138e+06 	2.375598e+04 	8.812539e+08 	3.614832e-01 	3.785571e+38 	
1.201146e+06 	2.348389e+04 	8.787858e+08 	3.656662e-01 	3.785570e+38 	
1.201153e+06 	2.321492e+04 	8.763251e+08 	3.698976e-01 	3.785569e+38 	
1.201161e+06 	2.294902e+04 	8.738718e+08 	3.741780e-01 	3.785568e+38 	
1.201168e+06 	2.268618e+04 	8.714258e+08 	3.785079e-01 	3.785566e+38 	
1.201176e+06 	2.242634e+04 	8.689872e+08 	3.828880e-01 	3.785565e+38 	
1.201183e+06 	2.216948e+04 	8.665559e+08 	3.873187e-01 	3.785564e+38 	
1.201191e+06 	2.191556e+04 	8.641318e+08 	3.918008e-01 	3.785563e+38 	
1.201198e+06 	2.166455e+04 	8.617150e+08 	3.963347e-01 	3.785561e+38 	
1.201206e+06 	2.141641e+04 	8.593053e+08 	4.009210e-01 	3.785560e+38 	
1.201213e+06 	2.117112e+04 	8.569029e+08 	4.055605e-01 	3.785559e+38 	
1.201221e+06 	2.092863e+04 	8.545076e+08 	4.102536e-01 	3.785558e+38 	
1.201228e+06 	2.068893e+04 	8.521195e+08 	4.150011e-01 	3.785557e+38 	
1.201236e+06 	2.045197e+04 	8.497385e+08 	4.198035e-01 	3.785555e+38 	
1.201243e+06 	2.021772e+04 	8.473648e+08 	4.246615e-01 	3.785554e+38 	
1.201251e+06 	1.998615e+04 	8.449981e+08 	4.295757e-01 	3.785553e+38 	
1.201258e+06 	1.975724e+04 	8.426385e+08 	4.345468e-01 	3.785552e+38 	
1.201265e+06 	1.953095e+04 	8.402859e+08 	4.395755e-01 	3.785551e+38 	
1.201273e+06 	1.930725e+04 	8.379403e+08 	4.446623e-01 	3.785549e+38 	
1.201280e+06 	1.908612e+04 	8.356018e+08 	4.498080e-01 	3.785548e+38 	
1.201288e+06 	1.886751e+04 	8.332702e+08 	4.550133e-01 	3.785547e+38 	
1.201295e+06 	1.865141e+04 	8.309456e+08 	4.602788e-01 	3.785546e+38 	
1.201302e+06 	1.843779e+04 	8.286281e+08 	4.656052e-01 	3.785544e+38 	
1.201310e+06 	1.822661e+04 	8.263174e+08 	4.709933e-01 	3.785543e+38 	
1.201317e+06 	1.801785e+04 	8.240137e+08 	4.764438e-01 	3.785542e+38 	
1.201324e+06 	1.781148e+04 	8.217168e+08 	4.819573e-01 	3.785541e+38 	
1.201332e+06 	1.760748e+04 	8.194268e+08 	4.875347e-01 	3.785540e+38 	
1.201339e+06 	1.740581e+04 	8.171436e+08 	4.931766e-01 	3.785538e+38 	
1.201346e+06 	1.720645e+04 	8.148672e+08 	4.988838e-01 	3.785537e+38 	
1.201353e+06 	1.700938e+04 	8.125977e+08 	5.046570e-01 	3.785536e+38 	
1.201361e+06 	1.681456e+04 	8.103350e+08 	5.104971e-01 	3.785535e+38 	
1.201368e+06 	1.662197e+04 	8.080791e+08 	5.164048e-01 	3.785534e+38 	
1.201375e+06 	1.643159e+04 	8.058300e+08 	5.223808e-01 	3.785532e+38 	
1.201383e+06 	1.624339e+04 	8.035875e+08 	5.284261e-01 	3.785531e+38 	
1.201390e+06 	1.605735e+04 	8.013518e+08 	5.345412e-01 	3.785530e+38 	
1.201397e+06 	1.587343e+04 	7.991227e+08 	5.407272e-01 	3.785529e+38 	
1.201404e+06 	1.569163e+04 	7.969002e+08 	5.469847e-01 	3.785528e+38 	
1.201411e+06 	1.551190e+04 	7.946845e+08 	5.533147e-01 	3.785526e+38 	
1.201419e+06 	1.533424e+04 	7.924753e+08 	5.597180e-01 	3.785525e+38 	
1.201426e+06 	1.515860e+04 	7.902729e+08 	5.661953e-01 	3.785524e+38 	
1.201433e+06 	1.498499e+04 	7.880770e+08 	5.727477e-01 	3.785523e+38 	
1.201440e+06 	1.481335e+04 	7.858877e+08 	5.793758e-01 	3.785522e+38 	
1.201447e+06 	1.464369e+04 	7.837050e+08 	5.860807e-01 	3.785520e+38 	
1.201454e+06 	1.447597e+04 	7.815288e+08 	5.928632e-01 	3.785519e+38 	
1.201462e+06 	1.431017e+04 	7.793590e+08 	5.997242e-01 	3.785518e+38 	
1.201469e+06 	1.414626e+04 	7.771957e+08 	6.066646e-01 	3.785517e+38 	
1.201476e+06 	1.398424e+04 	7.750390e+08 	6.136853e-01 	3.785516e+38 	
1.201483e+06 	1.382407e+04 	7.728887e+08 	6.207873e-01 	3.785514e+38 	
1.201490e+06 	1.366573e+04 	7.707449e+08 	6.279714e-01 	3.785513e+38 	
1.201497e+06 	1.350921e+04 	7.686075e+08 	6.352388e-01 	3.785512e+38 	
1.201504e+06 	1.335449e+04 	7.664765e+08 	6.425902e-01 	3.785511e+38 	
1.201511e+06 	1.320153e+04 	7.643519e+08 	6.500267e-01 	3.785510e+38 	
1.201518e+06 	1.305032e+04 	7.622336e+08 	6.575493e-01 	3.785508e+38 	
1.201526e+06 	1.290085e+04 	7.601216e+08 	6.651590e-01 	3.785507e+38 	
1.201533e+06 	1.275309e+04 	7.580160e+08 	6.728568e-01 	3.785506e+38 	
1.201540e+06 	1.260702e+04 	7.559167e+08 	6.806436e-01 	3.785505e+38 	
1.201547e+06 	1.246263e+04 	7.538237e+08 	6.885206e-01 	3.785504e+38 	
1.201554e+06 	1.231989e+04 	7.517370e+08 	6.964887e-01 	3.785502e+38 	
1.201561e+06 	1.217878e+04 	7.496566e+08 	7.045491e-01 	3.785501e+38 	
1.201568e+06 	1.203929e+04 	7.475823e+08 	7.127027e-01 	3.785500e+38 	
1.201575e+06 	1.190140e+04 	7.455143e+08 	7.209508e-01 	3.785499e+38 	
1.201582e+06 	1.176508e+04 	7.434525e+08 	7.292943e-01 	3.785498e+38 	
1.201589e+06 	1.163033e+04 	7.413968e+08 	7.377343e-01 	3.785496e+38 	
1.201596e+06 	1.149712e+04 	7.393473e+08 	7.462721e-01 	3.785495e+38 	
1.201603e+06 	1.136544e+04 	7.373039e+08 	7.549087e-01 	3.785494e+38 	
1.201610e+06 	1.123527e+04 	7.352667e+08 	7.636452e-01 	3.785493e+38 	
1.201617e+06 	1.110658e+04 	7.332356e+08 	7.724829e-01 	3.785492e+38 	
1.201624e+06 	1.097937e+04 	7.312106e+08 	7.814228e-01 	3.785490e+38 	
1.201630e+06 	1.085362e+04 	7.291917e+08 	7.904663e-01 	3.785489e+38 	
1.201637e+06 	1.072931e+04 	7.271788e+08 	7.996143e-01 	3.785488e+38 	
1.201644e+06 	1.060642e+04 	7.251719e+08 	8.088683e-01 	3.785487e+38 	
1.201651e+06 	1.048494e+04 	7.231710e+08 	8.182294e-01 	3.785486e+38 	
1.201658e+06 	1.036485e+04 	7.211761e+08 	8.276989e-01 	3.785484e+38 	
1.201665e+06 	1.024613e+04 	7.191873e+08 	8.372779e-01 	3.785483e+38 	
1.201672e+06 	1.012878e+04 	7.172045e+08 	8.469678e-01 	3.785482e+38 	
1.201679e+06 	1.001277e+04 	7.152275e+08 	8.567699e-01 	3.785481e+38 	
1.201686e+06 	9.898088e+03 	7.132565e+08 	8.666854e-01 	3.785479e+38 	
1.201693e+06 	9.784720e+03 	7.112914e+08 	8.767157e-01 	3.785478e+38 	
1.201699e+06 	9.672650e+03 	7.093322e+08 	8.868621e-01 	3.785477e+38 	
1.201706e+06 	9.561864e+03 	7.073788e+08 	8.971259e-01 	3.785476e+38 	
1.201713e+06 	9.452347e+03 	7.054313e+08 	9.075085e-01 	3.785475e+38 	
1.201720e+06 	9.344084e+03 	7.034897e+08 	9.180113e-01 	3.785473e+38 	
1.201727e+06 	9.237061e+03 	7.015539e+08 	9.286357e-01 	3.785472e+38 	
1.201734e+06 	9.131264e+03 	6.996240e+08 	9.393830e-01 	3.785471e+38 	
1.201740e+06 	9.026679e+03 	6.976998e+08 	9.502548e-01 	3.785470e+38 	
1.201747e+06 	8.923291e+03 	6.957814e+08 	9.612523e-01 	3.785469e+38 	
1.201754e+06 	8.821088e+03 	6.938687e+08 	9.723772e-01 	3.785467e+38 	
1.201761e+06 	8.720055e+03 	6.919618e+08 	9.836308e-01 	3.785466e+38 	
1.201768e+06 	8.620180e+03 	6.900605e+08 	9.950147e-01 	3.785465e+38 	
1.201774e+06 	8.521448e+03 	6.881650e+08 	1.006530e+00 	3.785464e+38 	
1.201781e+06 	8.423847e+03 	6.862752e+08 	1.018179e+00 	3.785463e+38 	
1.201788e+06 	8.327364e+03 	6.843911e+08 	1.029963e+00 	3.785461e+38 	
1.201795e+06 	8.231987e+03 	6.825127e+08 	1.041883e+00 	3.785460e+38 	
1.201801e+06 	8.137701e+03 	6.806399e+08 	1.053941e+00 	3.785459e+38 	
1.201808e+06 	8.044496e+03 	6.787727e+08 	1.066139e+00 	3.785458e+38 	
1.201815e+06 	7.952358e+03 	6.769111e+08 	1.078478e+00 	3.785457e+38 	
1.201821e+06 	7.861275e+03 	6.750551e+08 	1.090960e+00 	3.785455e+38 	
1.201828e+06 	7.771235e+03 	6.732046e+08 	1.103586e+00 	3.785454e+38 	
1.201835e+06 	7.682227e+03 	6.713597e+08 	1.116358e+00 	3.785453e+38 	
1.201842e+06 	7.594239e+03 	6.695204e+08 	1.129278e+00 	3.785452e+38 	
1.201848e+06 	7.507258e+03 	6.676867e+08 	1.142348e+00 	3.785451e+38 	
1.201855e+06 	7.421273e+03 	6.658584e+08 	1.155569e+00 	3.785449e+38 	
1.201862e+06 	7.336273e+03 	6.640356e+08 	1.168943e+00 	3.785448e+38 	
1.201868e+06 	7.252247e+03 	6.622183e+08 	1.182472e+00 	3.785447e+38 	
1.201875e+06 	7.169183e+03 	6.604064e+08 	1.196157e+00 	3.785446e+38 	
1.201882e+06 	7.087070e+03 	6.586000e+08 	1.210001e+00 	3.785445e+38 	
1.201888e+06 	7.005898e+03 	6.567990e+08 	1.224005e+00 	3.785443e+38 	
1.201895e+06 	6.925656e+03 	6.550034e+08 	1.238171e+00 	3.785442e+38 	
1.201902e+06 	6.846332e+03 	6.532133e+08 	1.252501e+00 	3.785441e+38 	
1.201908e+06 	6.767918e+03 	6.514286e+08 	1.266997e+00 	3.785440e+38 	
1.201915e+06 	6.690401e+03 	6.496492e+08 	1.281661e+00 	3.785438e+38 	
1.201921e+06 	6.613772e+03 	6.478751e+08 	1.296494e+00 	3.785437e+38 	
1.201928e+06 	6.538021e+03 	6.461064e+08 	1.311500e+00 	3.785436e+38 	
1.201935e+06 	6.463138e+03 	6.443429e+08 	1.326678e+00 	3.785435e+38 	
1.201941e+06 	6.389112e+03 	6.425848e+08 	1.342033e+00 	3.785434e+38 	
1.201948e+06 	6.315934e+03 	6.408320e+08 	1.357565e+00 	3.785432e+38 	
1.201954e+06 	6.243594e+03 	6.390845e+08 	1.373277e+00 	3.785431e+38 	
1.201961e+06 	6.172083e+03 	6.373422e+08 	1.389171e+00 	3.785430e+38 	
1.201968e+06 	6.101390e+03 	6.356052e+08 	1.405249e+00 	3.785429e+38 	
1.201974e+06 	6.031508e+03 	6.338734e+08 	1.421513e+00 	3.785428e+38 	
1.201981e+06 	5.962426e+03 	6.321468e+08 	1.437965e+00 	3.785426e+38 	
1.201987e+06 	5.894135e+03 	6.304254e+08 	1.454608e+00 	3.785425e+38 	
1.201994e+06 	5.826626e+03 	6.287091e+08 	1.471444e+00 	3.785424e+38 	
1.202000e+06 	5.759891e+03 	6.269980e+08 	1.488474e+00 	3.785423e+38 	
1.202007e+06 	5.693919e+03 	6.252921e+08 	1.505701e+00 	3.785421e+38 	
1.202013e+06 	5.628704e+03 	6.235914e+08 	1.523128e+00 	3.785420e+38 	
1.202020e+06 	5.564235e+03 	6.218958e+08 	1.540756e+00 	3.785419e+38 	
1.202026e+06 	5.500505e+03 	6.202053e+08 	1.558589e+00 	3.785418e+38 	
1.202033e+06 	5.437505e+03 	6.185198e+08 	1.576628e+00 	3.785417e+38 	
1.202039e+06 	5.375226e+03 	6.168395e+08 	1.594875e+00 	3.785415e+38 	
1.202046e+06 	5.313661e+03 	6.151641e+08 	1.613334e+00 	3.785414e+38 	
1.202052e+06 	5.252800e+03 	6.134939e+08 	1.632007e+00 	3.785413e+38 	
1.202059e+06 	5.192637e+03 	6.118286e+08 	1.650895e+00 	3.785412e+38 	
1.202065e+06 	5.133163e+03 	6.101684e+08 	1.670003e+00 	3.785411e+38 	
1.202072e+06 	5.074370e+03 	6.085132e+08 	1.689331e+00 	3.785409e+38 	
1.202078e+06 	5.016251e+03 	6.068630e+08 	1.708883e+00 	3.785408e+38 	
1.202085e+06 	4.958797e+03 	6.052178e+08 	1.728662e+00 	3.785407e+38 	
1.202091e+06 	4.902001e+03 	6.035775e+08 	1.748669e+00 	3.785406e+38 	
1.202097e+06 	4.845856e+03 	6.019422e+08 	1.768908e+00 	3.785404e+38 	
1.202104e+06 	4.790354e+03 	6.003118e+08 	1.789382e+00 	3.785403e+38 	
1.202110e+06 	4.735487e+03 	5.986862e+08 	1.810092e+00 	3.785402e+38 	
1.202117e+06 	4.681249e+03 	5.970656e+08 	1.831042e+00 	3.785401e+38 	
1.202123e+06 	4.627632e+03 	5.954499e+08 	1.852235e+00 	3.785400e+38 	
1.202130e+06 	4.574629e+03 	5.938391e+08 	1.873673e+00 	3.785398e+38 	
1.202136e+06 	4.522234e+03 	5.922332e+08 	1.895358e+00 	3.785397e+38 	
