r (cm)      	rho (g/cm3) 	T (K)       	u (cm/s)    	L* (erg/s)  			 Edot= 5.172473e+38
1.199996e+06 	1.100158e+05 	1.299256e+09 	1.104948e-01 	3.879770e+38 	
1.200005e+06 	1.087884e+05 	1.295655e+09 	1.117395e-01 	3.879768e+38 	
1.200015e+06 	1.075747e+05 	1.292065e+09 	1.129982e-01 	3.879767e+38 	
1.200024e+06 	1.063745e+05 	1.288486e+09 	1.142711e-01 	3.879765e+38 	
1.200033e+06 	1.051878e+05 	1.284916e+09 	1.155583e-01 	3.879763e+38 	
1.200043e+06 	1.040142e+05 	1.281358e+09 	1.168600e-01 	3.879761e+38 	
1.200052e+06 	1.028538e+05 	1.277809e+09 	1.181764e-01 	3.879759e+38 	
1.200061e+06 	1.017063e+05 	1.274271e+09 	1.195076e-01 	3.879757e+38 	
1.200070e+06 	1.005716e+05 	1.270742e+09 	1.208538e-01 	3.879755e+38 	
1.200079e+06 	9.944961e+04 	1.267225e+09 	1.222152e-01 	3.879753e+38 	
1.200089e+06 	9.834011e+04 	1.263717e+09 	1.235920e-01 	3.879751e+38 	
1.200098e+06 	9.724298e+04 	1.260220e+09 	1.249842e-01 	3.879749e+38 	
1.200107e+06 	9.615809e+04 	1.256733e+09 	1.263921e-01 	3.879748e+38 	
1.200116e+06 	9.508531e+04 	1.253256e+09 	1.278159e-01 	3.879746e+38 	
1.200125e+06 	9.402449e+04 	1.249789e+09 	1.292558e-01 	3.879744e+38 	
1.200134e+06 	9.297551e+04 	1.246332e+09 	1.307118e-01 	3.879742e+38 	
1.200143e+06 	9.193824e+04 	1.242885e+09 	1.321843e-01 	3.879740e+38 	
1.200152e+06 	9.091253e+04 	1.239448e+09 	1.336734e-01 	3.879738e+38 	
1.200161e+06 	8.989827e+04 	1.236021e+09 	1.351792e-01 	3.879736e+38 	
1.200170e+06 	8.889532e+04 	1.232605e+09 	1.367020e-01 	3.879734e+38 	
1.200180e+06 	8.790357e+04 	1.229198e+09 	1.382420e-01 	3.879733e+38 	
1.200189e+06 	8.692287e+04 	1.225801e+09 	1.397993e-01 	3.879731e+38 	
1.200198e+06 	8.595312e+04 	1.222414e+09 	1.413741e-01 	3.879729e+38 	
1.200207e+06 	8.499419e+04 	1.219036e+09 	1.429667e-01 	3.879727e+38 	
1.200215e+06 	8.404595e+04 	1.215669e+09 	1.445773e-01 	3.879725e+38 	
1.200224e+06 	8.310830e+04 	1.212311e+09 	1.462060e-01 	3.879723e+38 	
1.200233e+06 	8.218110e+04 	1.208963e+09 	1.478530e-01 	3.879721e+38 	
1.200242e+06 	8.126425e+04 	1.205625e+09 	1.495186e-01 	3.879719e+38 	
1.200251e+06 	8.035763e+04 	1.202296e+09 	1.512030e-01 	3.879718e+38 	
1.200260e+06 	7.946113e+04 	1.198977e+09 	1.529064e-01 	3.879716e+38 	
1.200269e+06 	7.857462e+04 	1.195668e+09 	1.546289e-01 	3.879714e+38 	
1.200278e+06 	7.769801e+04 	1.192369e+09 	1.563709e-01 	3.879712e+38 	
1.200287e+06 	7.683117e+04 	1.189078e+09 	1.581325e-01 	3.879710e+38 	
1.200296e+06 	7.597401e+04 	1.185798e+09 	1.599139e-01 	3.879708e+38 	
1.200304e+06 	7.512641e+04 	1.182527e+09 	1.617154e-01 	3.879706e+38 	
1.200313e+06 	7.428826e+04 	1.179265e+09 	1.635372e-01 	3.879705e+38 	
1.200322e+06 	7.345947e+04 	1.176014e+09 	1.653796e-01 	3.879703e+38 	
1.200331e+06 	7.263992e+04 	1.172771e+09 	1.672427e-01 	3.879701e+38 	
1.200340e+06 	7.182952e+04 	1.169538e+09 	1.691267e-01 	3.879699e+38 	
1.200348e+06 	7.102815e+04 	1.166314e+09 	1.710321e-01 	3.879697e+38 	
1.200357e+06 	7.023573e+04 	1.163100e+09 	1.729589e-01 	3.879695e+38 	
1.200366e+06 	6.945215e+04 	1.159895e+09 	1.749074e-01 	3.879694e+38 	
1.200374e+06 	6.867731e+04 	1.156699e+09 	1.768778e-01 	3.879692e+38 	
1.200383e+06 	6.791111e+04 	1.153513e+09 	1.788705e-01 	3.879690e+38 	
1.200392e+06 	6.715346e+04 	1.150336e+09 	1.808856e-01 	3.879688e+38 	
1.200401e+06 	6.640427e+04 	1.147168e+09 	1.829234e-01 	3.879686e+38 	
1.200409e+06 	6.566343e+04 	1.144010e+09 	1.849842e-01 	3.879684e+38 	
1.200418e+06 	6.493086e+04 	1.140860e+09 	1.870682e-01 	3.879683e+38 	
1.200426e+06 	6.420646e+04 	1.137720e+09 	1.891757e-01 	3.879681e+38 	
1.200435e+06 	6.349015e+04 	1.134589e+09 	1.913069e-01 	3.879679e+38 	
1.200444e+06 	6.278182e+04 	1.131466e+09 	1.934621e-01 	3.879677e+38 	
1.200452e+06 	6.208140e+04 	1.128353e+09 	1.956417e-01 	3.879675e+38 	
1.200461e+06 	6.138879e+04 	1.125249e+09 	1.978458e-01 	3.879673e+38 	
1.200469e+06 	6.070391e+04 	1.122154e+09 	2.000747e-01 	3.879672e+38 	
1.200478e+06 	6.002667e+04 	1.119069e+09 	2.023287e-01 	3.879670e+38 	
1.200486e+06 	5.935698e+04 	1.115992e+09 	2.046082e-01 	3.879668e+38 	
1.200495e+06 	5.869477e+04 	1.112924e+09 	2.069133e-01 	3.879666e+38 	
1.200504e+06 	5.803994e+04 	1.109865e+09 	2.092444e-01 	3.879664e+38 	
1.200512e+06 	5.739242e+04 	1.106814e+09 	2.116018e-01 	3.879662e+38 	
1.200521e+06 	5.675212e+04 	1.103773e+09 	2.139857e-01 	3.879661e+38 	
1.200529e+06 	5.611897e+04 	1.100740e+09 	2.163965e-01 	3.879659e+38 	
1.200537e+06 	5.549288e+04 	1.097717e+09 	2.188345e-01 	3.879657e+38 	
1.200546e+06 	5.487378e+04 	1.094702e+09 	2.212999e-01 	3.879655e+38 	
1.200554e+06 	5.426158e+04 	1.091696e+09 	2.237931e-01 	3.879653e+38 	
1.200563e+06 	5.365621e+04 	1.088698e+09 	2.263145e-01 	3.879651e+38 	
1.200571e+06 	5.305760e+04 	1.085710e+09 	2.288642e-01 	3.879650e+38 	
1.200580e+06 	5.246567e+04 	1.082730e+09 	2.314426e-01 	3.879648e+38 	
1.200588e+06 	5.188033e+04 	1.079759e+09 	2.340502e-01 	3.879646e+38 	
1.200596e+06 	5.130153e+04 	1.076796e+09 	2.366871e-01 	3.879644e+38 	
1.200605e+06 	5.072919e+04 	1.073842e+09 	2.393537e-01 	3.879642e+38 	
1.200613e+06 	5.016323e+04 	1.070896e+09 	2.420503e-01 	3.879641e+38 	
1.200621e+06 	4.960359e+04 	1.067959e+09 	2.447774e-01 	3.879639e+38 	
1.200630e+06 	4.905019e+04 	1.065031e+09 	2.475351e-01 	3.879637e+38 	
1.200638e+06 	4.850296e+04 	1.062111e+09 	2.503240e-01 	3.879635e+38 	
1.200646e+06 	4.796184e+04 	1.059200e+09 	2.531443e-01 	3.879633e+38 	
1.200655e+06 	4.742676e+04 	1.056297e+09 	2.559963e-01 	3.879632e+38 	
1.200663e+06 	4.689764e+04 	1.053403e+09 	2.588805e-01 	3.879630e+38 	
1.200671e+06 	4.637443e+04 	1.050517e+09 	2.617972e-01 	3.879628e+38 	
1.200679e+06 	4.585705e+04 	1.047639e+09 	2.647468e-01 	3.879626e+38 	
1.200688e+06 	4.534545e+04 	1.044770e+09 	2.677296e-01 	3.879624e+38 	
1.200696e+06 	4.483956e+04 	1.041909e+09 	2.707460e-01 	3.879623e+38 	
1.200704e+06 	4.433931e+04 	1.039056e+09 	2.737964e-01 	3.879621e+38 	
1.200712e+06 	4.384464e+04 	1.036212e+09 	2.768812e-01 	3.879619e+38 	
1.200720e+06 	4.335549e+04 	1.033376e+09 	2.800007e-01 	3.879617e+38 	
1.200728e+06 	4.287179e+04 	1.030549e+09 	2.831554e-01 	3.879615e+38 	
1.200737e+06 	4.239349e+04 	1.027729e+09 	2.863457e-01 	3.879614e+38 	
1.200745e+06 	4.192053e+04 	1.024918e+09 	2.895719e-01 	3.879612e+38 	
1.200753e+06 	4.145285e+04 	1.022114e+09 	2.928344e-01 	3.879610e+38 	
1.200761e+06 	4.099038e+04 	1.019320e+09 	2.961338e-01 	3.879608e+38 	
1.200769e+06 	4.053307e+04 	1.016533e+09 	2.994703e-01 	3.879606e+38 	
1.200777e+06 	4.008087e+04 	1.013754e+09 	3.028444e-01 	3.879605e+38 	
1.200785e+06 	3.963371e+04 	1.010983e+09 	3.062565e-01 	3.879603e+38 	
1.200793e+06 	3.919154e+04 	1.008221e+09 	3.097070e-01 	3.879601e+38 	
1.200801e+06 	3.875430e+04 	1.005466e+09 	3.131965e-01 	3.879599e+38 	
1.200810e+06 	3.832194e+04 	1.002720e+09 	3.167253e-01 	3.879597e+38 	
1.200818e+06 	3.789440e+04 	9.999812e+08 	3.202938e-01 	3.879596e+38 	
1.200826e+06 	3.747163e+04 	9.972506e+08 	3.239026e-01 	3.879594e+38 	
1.200834e+06 	3.705358e+04 	9.945280e+08 	3.275520e-01 	3.879592e+38 	
1.200842e+06 	3.664019e+04 	9.918134e+08 	3.312425e-01 	3.879590e+38 	
1.200850e+06 	3.623142e+04 	9.891067e+08 	3.349747e-01 	3.879588e+38 	
1.200858e+06 	3.582720e+04 	9.864078e+08 	3.387489e-01 	3.879587e+38 	
1.200866e+06 	3.542750e+04 	9.837168e+08 	3.425656e-01 	3.879585e+38 	
1.200874e+06 	3.503225e+04 	9.810336e+08 	3.464253e-01 	3.879583e+38 	
1.200881e+06 	3.464142e+04 	9.783582e+08 	3.503286e-01 	3.879581e+38 	
1.200889e+06 	3.425494e+04 	9.756905e+08 	3.542758e-01 	3.879580e+38 	
1.200897e+06 	3.387278e+04 	9.730307e+08 	3.582675e-01 	3.879578e+38 	
1.200905e+06 	3.349488e+04 	9.703786e+08 	3.623042e-01 	3.879576e+38 	
1.200913e+06 	3.312119e+04 	9.677343e+08 	3.663864e-01 	3.879574e+38 	
1.200921e+06 	3.275168e+04 	9.650976e+08 	3.705145e-01 	3.879572e+38 	
1.200929e+06 	3.238629e+04 	9.624687e+08 	3.746892e-01 	3.879571e+38 	
1.200937e+06 	3.202497e+04 	9.598473e+08 	3.789110e-01 	3.879569e+38 	
1.200945e+06 	3.166768e+04 	9.572336e+08 	3.831803e-01 	3.879567e+38 	
1.200953e+06 	3.131438e+04 	9.546275e+08 	3.874977e-01 	3.879565e+38 	
1.200960e+06 	3.096503e+04 	9.520289e+08 	3.918638e-01 	3.879564e+38 	
1.200968e+06 	3.061957e+04 	9.494380e+08 	3.962791e-01 	3.879562e+38 	
1.200976e+06 	3.027796e+04 	9.468546e+08 	4.007441e-01 	3.879560e+38 	
1.200984e+06 	2.994017e+04 	9.442788e+08 	4.052595e-01 	3.879558e+38 	
1.200992e+06 	2.960614e+04 	9.417105e+08 	4.098258e-01 	3.879556e+38 	
1.200999e+06 	2.927584e+04 	9.391496e+08 	4.144435e-01 	3.879555e+38 	
1.201007e+06 	2.894923e+04 	9.365962e+08 	4.191132e-01 	3.879553e+38 	
1.201015e+06 	2.862625e+04 	9.340502e+08 	4.238356e-01 	3.879551e+38 	
1.201023e+06 	2.830689e+04 	9.315116e+08 	4.286112e-01 	3.879549e+38 	
1.201030e+06 	2.799108e+04 	9.289804e+08 	4.334406e-01 	3.879548e+38 	
1.201038e+06 	2.767880e+04 	9.264566e+08 	4.383244e-01 	3.879546e+38 	
1.201046e+06 	2.737000e+04 	9.239402e+08 	4.432633e-01 	3.879544e+38 	
1.201054e+06 	2.706465e+04 	9.214311e+08 	4.482578e-01 	3.879542e+38 	
1.201061e+06 	2.676271e+04 	9.189294e+08 	4.533086e-01 	3.879540e+38 	
1.201069e+06 	2.646413e+04 	9.164349e+08 	4.584163e-01 	3.879539e+38 	
1.201077e+06 	2.616888e+04 	9.139477e+08 	4.635816e-01 	3.879537e+38 	
1.201084e+06 	2.587693e+04 	9.114676e+08 	4.688051e-01 	3.879535e+38 	
1.201092e+06 	2.558824e+04 	9.089948e+08 	4.740875e-01 	3.879533e+38 	
1.201100e+06 	2.530276e+04 	9.065293e+08 	4.794294e-01 	3.879532e+38 	
1.201107e+06 	2.502047e+04 	9.040709e+08 	4.848315e-01 	3.879530e+38 	
1.201115e+06 	2.474133e+04 	9.016197e+08 	4.902945e-01 	3.879528e+38 	
1.201122e+06 	2.446531e+04 	8.991757e+08 	4.958190e-01 	3.879526e+38 	
1.201130e+06 	2.419236e+04 	8.967388e+08 	5.014058e-01 	3.879525e+38 	
1.201138e+06 	2.392246e+04 	8.943090e+08 	5.070556e-01 	3.879523e+38 	
1.201145e+06 	2.365557e+04 	8.918863e+08 	5.127690e-01 	3.879521e+38 	
1.201153e+06 	2.339166e+04 	8.894706e+08 	5.185468e-01 	3.879519e+38 	
1.201160e+06 	2.313069e+04 	8.870619e+08 	5.243898e-01 	3.879518e+38 	
1.201168e+06 	2.287263e+04 	8.846602e+08 	5.302986e-01 	3.879516e+38 	
1.201176e+06 	2.261745e+04 	8.822656e+08 	5.362739e-01 	3.879514e+38 	
1.201183e+06 	2.236512e+04 	8.798780e+08 	5.423167e-01 	3.879512e+38 	
1.201191e+06 	2.211561e+04 	8.774974e+08 	5.484275e-01 	3.879510e+38 	
1.201198e+06 	2.186888e+04 	8.751237e+08 	5.546071e-01 	3.879509e+38 	
1.201206e+06 	2.162490e+04 	8.727569e+08 	5.608565e-01 	3.879507e+38 	
1.201213e+06 	2.138364e+04 	8.703970e+08 	5.671762e-01 	3.879505e+38 	
1.201221e+06 	2.114507e+04 	8.680439e+08 	5.735672e-01 	3.879503e+38 	
1.201228e+06 	2.090917e+04 	8.656978e+08 	5.800302e-01 	3.879502e+38 	
1.201236e+06 	2.067590e+04 	8.633584e+08 	5.865660e-01 	3.879500e+38 	
1.201243e+06 	2.044523e+04 	8.610259e+08 	5.931755e-01 	3.879498e+38 	
1.201250e+06 	2.021713e+04 	8.587003e+08 	5.998595e-01 	3.879496e+38 	
1.201258e+06 	1.999158e+04 	8.563814e+08 	6.066188e-01 	3.879495e+38 	
1.201265e+06 	1.976854e+04 	8.540693e+08 	6.134543e-01 	3.879493e+38 	
1.201273e+06 	1.954800e+04 	8.517639e+08 	6.203668e-01 	3.879491e+38 	
1.201280e+06 	1.932991e+04 	8.494653e+08 	6.273572e-01 	3.879489e+38 	
1.201288e+06 	1.911426e+04 	8.471733e+08 	6.344264e-01 	3.879488e+38 	
1.201295e+06 	1.890101e+04 	8.448880e+08 	6.415753e-01 	3.879486e+38 	
1.201302e+06 	1.869014e+04 	8.426094e+08 	6.488047e-01 	3.879484e+38 	
1.201310e+06 	1.848163e+04 	8.403375e+08 	6.561156e-01 	3.879482e+38 	
1.201317e+06 	1.827544e+04 	8.380722e+08 	6.635089e-01 	3.879481e+38 	
1.201324e+06 	1.807155e+04 	8.358135e+08 	6.709855e-01 	3.879479e+38 	
1.201332e+06 	1.786993e+04 	8.335614e+08 	6.785464e-01 	3.879477e+38 	
1.201339e+06 	1.767057e+04 	8.313159e+08 	6.861925e-01 	3.879475e+38 	
1.201346e+06 	1.747343e+04 	8.290769e+08 	6.939248e-01 	3.879474e+38 	
1.201354e+06 	1.727848e+04 	8.268444e+08 	7.017442e-01 	3.879472e+38 	
1.201361e+06 	1.708572e+04 	8.246184e+08 	7.096517e-01 	3.879470e+38 	
1.201368e+06 	1.689510e+04 	8.223990e+08 	7.176483e-01 	3.879468e+38 	
1.201376e+06 	1.670661e+04 	8.201860e+08 	7.257351e-01 	3.879466e+38 	
1.201383e+06 	1.652023e+04 	8.179796e+08 	7.339130e-01 	3.879465e+38 	
1.201390e+06 	1.633592e+04 	8.157796e+08 	7.421831e-01 	3.879463e+38 	
1.201398e+06 	1.615367e+04 	8.135860e+08 	7.505463e-01 	3.879461e+38 	
1.201405e+06 	1.597345e+04 	8.113988e+08 	7.590039e-01 	3.879459e+38 	
1.201412e+06 	1.579524e+04 	8.092180e+08 	7.675567e-01 	3.879458e+38 	
1.201419e+06 	1.561902e+04 	8.070435e+08 	7.762059e-01 	3.879456e+38 	
1.201427e+06 	1.544477e+04 	8.048754e+08 	7.849527e-01 	3.879454e+38 	
1.201434e+06 	1.527246e+04 	8.027136e+08 	7.937979e-01 	3.879452e+38 	
1.201441e+06 	1.510207e+04 	8.005582e+08 	8.027429e-01 	3.879451e+38 	
1.201448e+06 	1.493359e+04 	7.984090e+08 	8.117887e-01 	3.879449e+38 	
1.201455e+06 	1.476698e+04 	7.962662e+08 	8.209364e-01 	3.879447e+38 	
1.201463e+06 	1.460224e+04 	7.941296e+08 	8.301873e-01 	3.879445e+38 	
1.201470e+06 	1.443933e+04 	7.919992e+08 	8.395423e-01 	3.879444e+38 	
1.201477e+06 	1.427823e+04 	7.898751e+08 	8.490029e-01 	3.879442e+38 	
1.201484e+06 	1.411894e+04 	7.877571e+08 	8.585700e-01 	3.879440e+38 	
1.201491e+06 	1.396142e+04 	7.856453e+08 	8.682450e-01 	3.879438e+38 	
1.201498e+06 	1.380566e+04 	7.835397e+08 	8.780290e-01 	3.879437e+38 	
1.201506e+06 	1.365164e+04 	7.814403e+08 	8.879232e-01 	3.879435e+38 	
1.201513e+06 	1.349934e+04 	7.793471e+08 	8.979290e-01 	3.879433e+38 	
1.201520e+06 	1.334873e+04 	7.772599e+08 	9.080475e-01 	3.879431e+38 	
1.201527e+06 	1.319981e+04 	7.751789e+08 	9.182801e-01 	3.879430e+38 	
1.201534e+06 	1.305254e+04 	7.731039e+08 	9.286280e-01 	3.879428e+38 	
1.201541e+06 	1.290692e+04 	7.710350e+08 	9.390925e-01 	3.879426e+38 	
1.201548e+06 	1.276293e+04 	7.689721e+08 	9.496750e-01 	3.879424e+38 	
1.201555e+06 	1.262054e+04 	7.669152e+08 	9.603767e-01 	3.879423e+38 	
1.201562e+06 	1.247974e+04 	7.648644e+08 	9.711991e-01 	3.879421e+38 	
1.201569e+06 	1.234051e+04 	7.628197e+08 	9.821434e-01 	3.879419e+38 	
1.201576e+06 	1.220283e+04 	7.607809e+08 	9.932110e-01 	3.879417e+38 	
1.201584e+06 	1.206669e+04 	7.587480e+08 	1.004403e+00 	3.879415e+38 	
1.201591e+06 	1.193207e+04 	7.567211e+08 	1.015722e+00 	3.879414e+38 	
1.201598e+06 	1.179895e+04 	7.547001e+08 	1.027168e+00 	3.879412e+38 	
1.201605e+06 	1.166732e+04 	7.526850e+08 	1.038743e+00 	3.879410e+38 	
1.201612e+06 	1.153715e+04 	7.506758e+08 	1.050449e+00 	3.879408e+38 	
1.201619e+06 	1.140844e+04 	7.486724e+08 	1.062286e+00 	3.879407e+38 	
1.201626e+06 	1.128116e+04 	7.466750e+08 	1.074257e+00 	3.879405e+38 	
1.201633e+06 	1.115530e+04 	7.446835e+08 	1.086363e+00 	3.879403e+38 	
1.201640e+06 	1.103085e+04 	7.426977e+08 	1.098605e+00 	3.879401e+38 	
1.201647e+06 	1.090778e+04 	7.407178e+08 	1.110985e+00 	3.879400e+38 	
1.201654e+06 	1.078609e+04 	7.387437e+08 	1.123505e+00 	3.879398e+38 	
1.201661e+06 	1.066576e+04 	7.367753e+08 	1.136166e+00 	3.879396e+38 	
1.201668e+06 	1.054676e+04 	7.348126e+08 	1.148969e+00 	3.879394e+38 	
1.201674e+06 	1.042910e+04 	7.328557e+08 	1.161917e+00 	3.879393e+38 	
1.201681e+06 	1.031275e+04 	7.309045e+08 	1.175011e+00 	3.879391e+38 	
1.201688e+06 	1.019769e+04 	7.289591e+08 	1.188252e+00 	3.879389e+38 	
1.201695e+06 	1.008392e+04 	7.270195e+08 	1.201643e+00 	3.879387e+38 	
1.201702e+06 	9.971422e+03 	7.250854e+08 	1.215184e+00 	3.879386e+38 	
1.201709e+06 	9.860176e+03 	7.231571e+08 	1.228879e+00 	3.879384e+38 	
1.201716e+06 	9.750171e+03 	7.212344e+08 	1.242727e+00 	3.879382e+38 	
1.201723e+06 	9.641394e+03 	7.193173e+08 	1.256731e+00 	3.879380e+38 	
1.201730e+06 	9.533830e+03 	7.174058e+08 	1.270894e+00 	3.879378e+38 	
1.201737e+06 	9.427466e+03 	7.154998e+08 	1.285216e+00 	3.879377e+38 	
1.201744e+06 	9.322289e+03 	7.135995e+08 	1.299699e+00 	3.879375e+38 	
1.201750e+06 	9.218285e+03 	7.117048e+08 	1.314346e+00 	3.879373e+38 	
1.201757e+06 	9.115442e+03 	7.098157e+08 	1.329158e+00 	3.879371e+38 	
1.201764e+06 	9.013746e+03 	7.079321e+08 	1.344136e+00 	3.879370e+38 	
1.201771e+06 	8.913184e+03 	7.060540e+08 	1.359284e+00 	3.879368e+38 	
1.201778e+06 	8.813745e+03 	7.041814e+08 	1.374602e+00 	3.879366e+38 	
1.201785e+06 	8.715415e+03 	7.023143e+08 	1.390093e+00 	3.879364e+38 	
1.201792e+06 	8.618181e+03 	7.004526e+08 	1.405758e+00 	3.879363e+38 	
1.201798e+06 	8.522033e+03 	6.985964e+08 	1.421600e+00 	3.879361e+38 	
1.201805e+06 	8.426957e+03 	6.967456e+08 	1.437620e+00 	3.879359e+38 	
1.201812e+06 	8.332942e+03 	6.949003e+08 	1.453821e+00 	3.879357e+38 	
1.201819e+06 	8.239976e+03 	6.930605e+08 	1.470205e+00 	3.879355e+38 	
1.201826e+06 	8.148047e+03 	6.912260e+08 	1.486773e+00 	3.879354e+38 	
1.201832e+06 	8.057144e+03 	6.893969e+08 	1.503528e+00 	3.879352e+38 	
1.201839e+06 	7.967255e+03 	6.875731e+08 	1.520472e+00 	3.879350e+38 	
1.201846e+06 	7.878368e+03 	6.857547e+08 	1.537607e+00 	3.879348e+38 	
1.201853e+06 	7.790474e+03 	6.839416e+08 	1.554935e+00 	3.879347e+38 	
1.201859e+06 	7.703559e+03 	6.821338e+08 	1.572458e+00 	3.879345e+38 	
1.201866e+06 	7.617615e+03 	6.803314e+08 	1.590179e+00 	3.879343e+38 	
1.201873e+06 	7.532629e+03 	6.785343e+08 	1.608100e+00 	3.879341e+38 	
1.201880e+06 	7.448592e+03 	6.767424e+08 	1.626222e+00 	3.879339e+38 	
1.201886e+06 	7.365492e+03 	6.749558e+08 	1.644549e+00 	3.879338e+38 	
1.201893e+06 	7.283319e+03 	6.731745e+08 	1.663082e+00 	3.879336e+38 	
1.201900e+06 	7.202063e+03 	6.713983e+08 	1.681824e+00 	3.879334e+38 	
1.201907e+06 	7.121713e+03 	6.696274e+08 	1.700778e+00 	3.879332e+38 	
1.201913e+06 	7.042260e+03 	6.678616e+08 	1.719945e+00 	3.879331e+38 	
1.201920e+06 	6.963694e+03 	6.661011e+08 	1.739328e+00 	3.879329e+38 	
1.201927e+06 	6.886003e+03 	6.643457e+08 	1.758929e+00 	3.879327e+38 	
1.201933e+06 	6.809180e+03 	6.625956e+08 	1.778752e+00 	3.879325e+38 	
1.201940e+06 	6.733214e+03 	6.608505e+08 	1.798797e+00 	3.879323e+38 	
1.201947e+06 	6.658095e+03 	6.591106e+08 	1.819069e+00 	3.879322e+38 	
1.201953e+06 	6.583814e+03 	6.573758e+08 	1.839569e+00 	3.879320e+38 	
1.201960e+06 	6.510362e+03 	6.556461e+08 	1.860301e+00 	3.879318e+38 	
1.201967e+06 	6.437729e+03 	6.539214e+08 	1.881266e+00 	3.879316e+38 	
1.201973e+06 	6.365907e+03 	6.522018e+08 	1.902467e+00 	3.879314e+38 	
1.201980e+06 	6.294886e+03 	6.504873e+08 	1.923907e+00 	3.879313e+38 	
1.201987e+06 	6.224658e+03 	6.487778e+08 	1.945589e+00 	3.879311e+38 	
1.201993e+06 	6.155212e+03 	6.470734e+08 	1.967515e+00 	3.879309e+38 	
1.202000e+06 	6.086542e+03 	6.453740e+08 	1.989688e+00 	3.879307e+38 	
1.202007e+06 	6.018638e+03 	6.436796e+08 	2.012112e+00 	3.879305e+38 	
1.202013e+06 	5.951491e+03 	6.419901e+08 	2.034788e+00 	3.879304e+38 	
1.202020e+06 	5.885093e+03 	6.403057e+08 	2.057719e+00 	3.879302e+38 	
1.202026e+06 	5.819437e+03 	6.386261e+08 	2.080909e+00 	3.879300e+38 	
1.202033e+06 	5.754512e+03 	6.369515e+08 	2.104360e+00 	3.879298e+38 	
1.202040e+06 	5.690312e+03 	6.352818e+08 	2.128076e+00 	3.879296e+38 	
1.202046e+06 	5.626829e+03 	6.336171e+08 	2.152059e+00 	3.879295e+38 	
1.202053e+06 	5.564053e+03 	6.319573e+08 	2.176312e+00 	3.879293e+38 	
1.202059e+06 	5.501978e+03 	6.303024e+08 	2.200839e+00 	3.879291e+38 	
1.202066e+06 	5.440595e+03 	6.286523e+08 	2.225642e+00 	3.879289e+38 	
1.202072e+06 	5.379898e+03 	6.270071e+08 	2.250725e+00 	3.879287e+38 	
1.202079e+06 	5.319877e+03 	6.253667e+08 	2.276090e+00 	3.879286e+38 	
1.202086e+06 	5.260526e+03 	6.237312e+08 	2.301741e+00 	3.879284e+38 	
1.202092e+06 	5.201837e+03 	6.221004e+08 	2.327681e+00 	3.879282e+38 	
1.202099e+06 	5.143803e+03 	6.204745e+08 	2.353914e+00 	3.879280e+38 	
1.202105e+06 	5.086416e+03 	6.188533e+08 	2.380442e+00 	3.879278e+38 	
1.202112e+06 	5.029670e+03 	6.172370e+08 	2.407270e+00 	3.879277e+38 	
1.202118e+06 	4.973557e+03 	6.156254e+08 	2.434399e+00 	3.879275e+38 	
1.202125e+06 	4.918069e+03 	6.140186e+08 	2.461835e+00 	3.879273e+38 	
1.202131e+06 	4.863201e+03 	6.124165e+08 	2.489580e+00 	3.879271e+38 	
1.202138e+06 	4.808945e+03 	6.108191e+08 	2.517637e+00 	3.879269e+38 	
