r (cm)      	rho (g/cm3) 	T (K)       	u (cm/s)    	L* (erg/s)  			 Edot= 5.172479e+38
1.199999e+06 	1.101140e+05 	1.298982e+09 	1.103957e-01 	3.879777e+38 	
1.200008e+06 	1.088857e+05 	1.295384e+09 	1.116390e-01 	3.879775e+38 	
1.200018e+06 	1.076712e+05 	1.291797e+09 	1.128963e-01 	3.879773e+38 	
1.200027e+06 	1.064702e+05 	1.288220e+09 	1.141678e-01 	3.879771e+38 	
1.200036e+06 	1.052825e+05 	1.284653e+09 	1.154536e-01 	3.879769e+38 	
1.200045e+06 	1.041082e+05 	1.281097e+09 	1.167539e-01 	3.879767e+38 	
1.200055e+06 	1.029469e+05 	1.277551e+09 	1.180689e-01 	3.879765e+38 	
1.200064e+06 	1.017986e+05 	1.274015e+09 	1.193987e-01 	3.879763e+38 	
1.200073e+06 	1.006631e+05 	1.270489e+09 	1.207434e-01 	3.879761e+38 	
1.200082e+06 	9.954026e+04 	1.266974e+09 	1.221033e-01 	3.879760e+38 	
1.200091e+06 	9.842995e+04 	1.263469e+09 	1.234785e-01 	3.879758e+38 	
1.200100e+06 	9.733203e+04 	1.259974e+09 	1.248692e-01 	3.879756e+38 	
1.200110e+06 	9.624635e+04 	1.256489e+09 	1.262756e-01 	3.879754e+38 	
1.200119e+06 	9.517278e+04 	1.253014e+09 	1.276978e-01 	3.879752e+38 	
1.200128e+06 	9.411118e+04 	1.249550e+09 	1.291361e-01 	3.879750e+38 	
1.200137e+06 	9.306143e+04 	1.246095e+09 	1.305905e-01 	3.879748e+38 	
1.200146e+06 	9.202338e+04 	1.242651e+09 	1.320613e-01 	3.879746e+38 	
1.200155e+06 	9.099692e+04 	1.239216e+09 	1.335487e-01 	3.879744e+38 	
1.200164e+06 	8.998190e+04 	1.235792e+09 	1.350529e-01 	3.879743e+38 	
1.200173e+06 	8.897821e+04 	1.232377e+09 	1.365740e-01 	3.879741e+38 	
1.200182e+06 	8.798571e+04 	1.228973e+09 	1.381122e-01 	3.879739e+38 	
1.200191e+06 	8.700428e+04 	1.225578e+09 	1.396678e-01 	3.879737e+38 	
1.200200e+06 	8.603380e+04 	1.222193e+09 	1.412409e-01 	3.879735e+38 	
1.200209e+06 	8.507414e+04 	1.218818e+09 	1.428317e-01 	3.879733e+38 	
1.200218e+06 	8.412519e+04 	1.215453e+09 	1.444404e-01 	3.879731e+38 	
1.200227e+06 	8.318683e+04 	1.212097e+09 	1.460673e-01 	3.879729e+38 	
1.200236e+06 	8.225893e+04 	1.208751e+09 	1.477124e-01 	3.879728e+38 	
1.200245e+06 	8.134138e+04 	1.205415e+09 	1.493762e-01 	3.879726e+38 	
1.200254e+06 	8.043407e+04 	1.202089e+09 	1.510586e-01 	3.879724e+38 	
1.200263e+06 	7.953687e+04 	1.198772e+09 	1.527600e-01 	3.879722e+38 	
1.200272e+06 	7.864969e+04 	1.195465e+09 	1.544806e-01 	3.879720e+38 	
1.200280e+06 	7.777240e+04 	1.192168e+09 	1.562206e-01 	3.879718e+38 	
1.200289e+06 	7.690489e+04 	1.188880e+09 	1.579801e-01 	3.879716e+38 	
1.200298e+06 	7.604706e+04 	1.185601e+09 	1.597595e-01 	3.879715e+38 	
1.200307e+06 	7.519880e+04 	1.182332e+09 	1.615590e-01 	3.879713e+38 	
1.200316e+06 	7.436001e+04 	1.179073e+09 	1.633787e-01 	3.879711e+38 	
1.200324e+06 	7.353057e+04 	1.175823e+09 	1.652189e-01 	3.879709e+38 	
1.200333e+06 	7.271038e+04 	1.172583e+09 	1.670798e-01 	3.879707e+38 	
1.200342e+06 	7.189934e+04 	1.169352e+09 	1.689617e-01 	3.879705e+38 	
1.200351e+06 	7.109734e+04 	1.166130e+09 	1.708648e-01 	3.879704e+38 	
1.200359e+06 	7.030429e+04 	1.162918e+09 	1.727894e-01 	3.879702e+38 	
1.200368e+06 	6.952009e+04 	1.159715e+09 	1.747356e-01 	3.879700e+38 	
1.200377e+06 	6.874464e+04 	1.156521e+09 	1.767038e-01 	3.879698e+38 	
1.200386e+06 	6.797783e+04 	1.153337e+09 	1.786941e-01 	3.879696e+38 	
1.200394e+06 	6.721958e+04 	1.150161e+09 	1.807068e-01 	3.879694e+38 	
1.200403e+06 	6.646979e+04 	1.146996e+09 	1.827423e-01 	3.879692e+38 	
1.200412e+06 	6.572836e+04 	1.143839e+09 	1.848006e-01 	3.879691e+38 	
1.200420e+06 	6.499519e+04 	1.140691e+09 	1.868822e-01 	3.879689e+38 	
1.200429e+06 	6.427021e+04 	1.137553e+09 	1.889872e-01 	3.879687e+38 	
1.200437e+06 	6.355332e+04 	1.134424e+09 	1.911159e-01 	3.879685e+38 	
1.200446e+06 	6.284442e+04 	1.131304e+09 	1.932686e-01 	3.879683e+38 	
1.200455e+06 	6.214343e+04 	1.128192e+09 	1.954455e-01 	3.879681e+38 	
1.200463e+06 	6.145025e+04 	1.125090e+09 	1.976470e-01 	3.879680e+38 	
1.200472e+06 	6.076481e+04 	1.121997e+09 	1.998733e-01 	3.879678e+38 	
1.200480e+06 	6.008702e+04 	1.118913e+09 	2.021246e-01 	3.879676e+38 	
1.200489e+06 	5.941678e+04 	1.115838e+09 	2.044014e-01 	3.879674e+38 	
1.200497e+06 	5.875402e+04 	1.112772e+09 	2.067037e-01 	3.879672e+38 	
1.200506e+06 	5.809866e+04 	1.109714e+09 	2.090320e-01 	3.879671e+38 	
1.200514e+06 	5.745060e+04 	1.106666e+09 	2.113866e-01 	3.879669e+38 	
1.200523e+06 	5.680978e+04 	1.103626e+09 	2.137677e-01 	3.879667e+38 	
1.200531e+06 	5.617610e+04 	1.100596e+09 	2.161756e-01 	3.879665e+38 	
1.200540e+06 	5.554949e+04 	1.097574e+09 	2.186106e-01 	3.879663e+38 	
1.200548e+06 	5.492987e+04 	1.094561e+09 	2.210730e-01 	3.879661e+38 	
1.200557e+06 	5.431716e+04 	1.091556e+09 	2.235632e-01 	3.879660e+38 	
1.200565e+06 	5.371128e+04 	1.088561e+09 	2.260815e-01 	3.879658e+38 	
1.200573e+06 	5.311216e+04 	1.085574e+09 	2.286281e-01 	3.879656e+38 	
1.200582e+06 	5.251973e+04 	1.082595e+09 	2.312034e-01 	3.879654e+38 	
1.200590e+06 	5.193390e+04 	1.079626e+09 	2.338078e-01 	3.879652e+38 	
1.200598e+06 	5.135461e+04 	1.076665e+09 	2.364414e-01 	3.879651e+38 	
1.200607e+06 	5.078178e+04 	1.073712e+09 	2.391048e-01 	3.879649e+38 	
1.200615e+06 	5.021534e+04 	1.070769e+09 	2.417981e-01 	3.879647e+38 	
1.200623e+06 	4.965522e+04 	1.067833e+09 	2.445218e-01 	3.879645e+38 	
1.200632e+06 	4.910135e+04 	1.064907e+09 	2.472762e-01 	3.879643e+38 	
1.200640e+06 	4.855365e+04 	1.061988e+09 	2.500616e-01 	3.879641e+38 	
1.200648e+06 	4.801206e+04 	1.059079e+09 	2.528784e-01 	3.879640e+38 	
1.200657e+06 	4.747652e+04 	1.056178e+09 	2.557270e-01 	3.879638e+38 	
1.200665e+06 	4.694695e+04 	1.053285e+09 	2.586076e-01 	3.879636e+38 	
1.200673e+06 	4.642328e+04 	1.050400e+09 	2.615207e-01 	3.879634e+38 	
1.200681e+06 	4.590546e+04 	1.047524e+09 	2.644666e-01 	3.879632e+38 	
1.200690e+06 	4.539341e+04 	1.044656e+09 	2.674457e-01 	3.879631e+38 	
1.200698e+06 	4.488707e+04 	1.041797e+09 	2.704584e-01 	3.879629e+38 	
1.200706e+06 	4.438638e+04 	1.038946e+09 	2.735050e-01 	3.879627e+38 	
1.200714e+06 	4.389128e+04 	1.036103e+09 	2.765859e-01 	3.879625e+38 	
1.200722e+06 	4.340170e+04 	1.033269e+09 	2.797015e-01 	3.879623e+38 	
1.200731e+06 	4.291758e+04 	1.030443e+09 	2.828523e-01 	3.879622e+38 	
1.200739e+06 	4.243886e+04 	1.027625e+09 	2.860385e-01 	3.879620e+38 	
1.200747e+06 	4.196548e+04 	1.024815e+09 	2.892606e-01 	3.879618e+38 	
1.200755e+06 	4.149738e+04 	1.022013e+09 	2.925191e-01 	3.879616e+38 	
1.200763e+06 	4.103450e+04 	1.019220e+09 	2.958142e-01 	3.879614e+38 	
1.200771e+06 	4.057679e+04 	1.016434e+09 	2.991465e-01 	3.879613e+38 	
1.200779e+06 	4.012418e+04 	1.013657e+09 	3.025163e-01 	3.879611e+38 	
1.200787e+06 	3.967662e+04 	1.010888e+09 	3.059241e-01 	3.879609e+38 	
1.200795e+06 	3.923405e+04 	1.008127e+09 	3.093703e-01 	3.879607e+38 	
1.200803e+06 	3.879642e+04 	1.005374e+09 	3.128553e-01 	3.879606e+38 	
1.200811e+06 	3.836366e+04 	1.002629e+09 	3.163796e-01 	3.879604e+38 	
1.200820e+06 	3.793574e+04 	9.998916e+08 	3.199436e-01 	3.879602e+38 	
1.200828e+06 	3.751259e+04 	9.971624e+08 	3.235477e-01 	3.879600e+38 	
1.200836e+06 	3.709416e+04 	9.944411e+08 	3.271925e-01 	3.879598e+38 	
1.200844e+06 	3.668040e+04 	9.917278e+08 	3.308783e-01 	3.879597e+38 	
1.200852e+06 	3.627125e+04 	9.890223e+08 	3.346056e-01 	3.879595e+38 	
1.200860e+06 	3.586667e+04 	9.863248e+08 	3.383750e-01 	3.879593e+38 	
1.200867e+06 	3.546659e+04 	9.836352e+08 	3.421868e-01 	3.879591e+38 	
1.200875e+06 	3.507099e+04 	9.809534e+08 	3.460415e-01 	3.879589e+38 	
1.200883e+06 	3.467979e+04 	9.782793e+08 	3.499397e-01 	3.879588e+38 	
1.200891e+06 	3.429296e+04 	9.756131e+08 	3.538818e-01 	3.879586e+38 	
1.200899e+06 	3.391044e+04 	9.729545e+08 	3.578683e-01 	3.879584e+38 	
1.200907e+06 	3.353219e+04 	9.703037e+08 	3.618998e-01 	3.879582e+38 	
1.200915e+06 	3.315816e+04 	9.676606e+08 	3.659766e-01 	3.879581e+38 	
1.200923e+06 	3.278830e+04 	9.650252e+08 	3.700994e-01 	3.879579e+38 	
1.200931e+06 	3.242256e+04 	9.623976e+08 	3.742687e-01 	3.879577e+38 	
1.200939e+06 	3.206091e+04 	9.597775e+08 	3.784849e-01 	3.879575e+38 	
1.200946e+06 	3.170329e+04 	9.571651e+08 	3.827486e-01 	3.879573e+38 	
1.200954e+06 	3.134966e+04 	9.545603e+08 	3.870604e-01 	3.879572e+38 	
1.200962e+06 	3.099997e+04 	9.519630e+08 	3.914207e-01 	3.879570e+38 	
1.200970e+06 	3.065419e+04 	9.493733e+08 	3.958302e-01 	3.879568e+38 	
1.200978e+06 	3.031226e+04 	9.467910e+08 	4.002894e-01 	3.879566e+38 	
1.200986e+06 	2.997414e+04 	9.442164e+08 	4.047988e-01 	3.879565e+38 	
1.200993e+06 	2.963980e+04 	9.416493e+08 	4.093590e-01 	3.879563e+38 	
1.201001e+06 	2.930918e+04 	9.390897e+08 	4.139706e-01 	3.879561e+38 	
1.201009e+06 	2.898226e+04 	9.365375e+08 	4.186341e-01 	3.879559e+38 	
1.201017e+06 	2.865898e+04 	9.339927e+08 	4.233502e-01 	3.879557e+38 	
1.201024e+06 	2.833931e+04 	9.314553e+08 	4.281195e-01 	3.879556e+38 	
1.201032e+06 	2.802320e+04 	9.289253e+08 	4.329424e-01 	3.879554e+38 	
1.201040e+06 	2.771062e+04 	9.264026e+08 	4.378197e-01 	3.879552e+38 	
1.201048e+06 	2.740152e+04 	9.238873e+08 	4.427520e-01 	3.879550e+38 	
1.201055e+06 	2.709587e+04 	9.213793e+08 	4.477398e-01 	3.879549e+38 	
1.201063e+06 	2.679363e+04 	9.188787e+08 	4.527839e-01 	3.879547e+38 	
1.201071e+06 	2.649477e+04 	9.163854e+08 	4.578847e-01 	3.879545e+38 	
1.201078e+06 	2.619923e+04 	9.138993e+08 	4.630431e-01 	3.879543e+38 	
1.201086e+06 	2.590700e+04 	9.114205e+08 	4.682596e-01 	3.879542e+38 	
1.201094e+06 	2.561802e+04 	9.089488e+08 	4.735348e-01 	3.879540e+38 	
1.201101e+06 	2.533227e+04 	9.064844e+08 	4.788695e-01 	3.879538e+38 	
1.201109e+06 	2.504970e+04 	9.040270e+08 	4.842643e-01 	3.879536e+38 	
1.201117e+06 	2.477029e+04 	9.015769e+08 	4.897198e-01 	3.879534e+38 	
1.201124e+06 	2.449399e+04 	8.991339e+08 	4.952369e-01 	3.879533e+38 	
1.201132e+06 	2.422077e+04 	8.966981e+08 	5.008161e-01 	3.879531e+38 	
1.201139e+06 	2.395060e+04 	8.942694e+08 	5.064582e-01 	3.879529e+38 	
1.201147e+06 	2.368345e+04 	8.918477e+08 	5.121638e-01 	3.879527e+38 	
1.201154e+06 	2.341928e+04 	8.894331e+08 	5.179337e-01 	3.879526e+38 	
1.201162e+06 	2.315805e+04 	8.870255e+08 	5.237687e-01 	3.879524e+38 	
1.201170e+06 	2.289973e+04 	8.846249e+08 	5.296694e-01 	3.879522e+38 	
1.201177e+06 	2.264430e+04 	8.822313e+08 	5.356365e-01 	3.879520e+38 	
1.201185e+06 	2.239172e+04 	8.798446e+08 	5.416709e-01 	3.879519e+38 	
1.201192e+06 	2.214195e+04 	8.774649e+08 	5.477733e-01 	3.879517e+38 	
1.201200e+06 	2.189497e+04 	8.750923e+08 	5.539445e-01 	3.879515e+38 	
1.201207e+06 	2.165075e+04 	8.727265e+08 	5.601852e-01 	3.879513e+38 	
1.201215e+06 	2.140924e+04 	8.703677e+08 	5.664962e-01 	3.879512e+38 	
1.201222e+06 	2.117044e+04 	8.680156e+08 	5.728783e-01 	3.879510e+38 	
1.201230e+06 	2.093429e+04 	8.656705e+08 	5.793324e-01 	3.879508e+38 	
1.201237e+06 	2.070078e+04 	8.633321e+08 	5.858591e-01 	3.879506e+38 	
1.201245e+06 	2.046988e+04 	8.610006e+08 	5.924594e-01 	3.879505e+38 	
1.201252e+06 	2.024155e+04 	8.586758e+08 	5.991341e-01 	3.879503e+38 	
1.201259e+06 	2.001577e+04 	8.563579e+08 	6.058840e-01 	3.879501e+38 	
1.201267e+06 	1.979250e+04 	8.540467e+08 	6.127099e-01 	3.879499e+38 	
1.201274e+06 	1.957173e+04 	8.517423e+08 	6.196127e-01 	3.879498e+38 	
1.201282e+06 	1.935342e+04 	8.494446e+08 	6.265934e-01 	3.879496e+38 	
1.201289e+06 	1.913754e+04 	8.471536e+08 	6.336526e-01 	3.879494e+38 	
1.201296e+06 	1.892408e+04 	8.448692e+08 	6.407915e-01 	3.879492e+38 	
1.201304e+06 	1.871299e+04 	8.425915e+08 	6.480107e-01 	3.879490e+38 	
1.201311e+06 	1.850426e+04 	8.403204e+08 	6.553113e-01 	3.879489e+38 	
1.201319e+06 	1.829785e+04 	8.380560e+08 	6.626942e-01 	3.879487e+38 	
1.201326e+06 	1.809375e+04 	8.357982e+08 	6.701602e-01 	3.879485e+38 	
1.201333e+06 	1.789193e+04 	8.335471e+08 	6.777104e-01 	3.879483e+38 	
1.201341e+06 	1.769235e+04 	8.313024e+08 	6.853457e-01 	3.879482e+38 	
1.201348e+06 	1.749501e+04 	8.290644e+08 	6.930669e-01 	3.879480e+38 	
1.201355e+06 	1.729986e+04 	8.268328e+08 	7.008752e-01 	3.879478e+38 	
1.201363e+06 	1.710689e+04 	8.246077e+08 	7.087715e-01 	3.879476e+38 	
1.201370e+06 	1.691607e+04 	8.223891e+08 	7.167567e-01 	3.879475e+38 	
1.201377e+06 	1.672738e+04 	8.201770e+08 	7.248320e-01 	3.879473e+38 	
1.201384e+06 	1.654080e+04 	8.179713e+08 	7.329982e-01 	3.879471e+38 	
1.201392e+06 	1.635630e+04 	8.157721e+08 	7.412564e-01 	3.879469e+38 	
1.201399e+06 	1.617385e+04 	8.135794e+08 	7.496077e-01 	3.879468e+38 	
1.201406e+06 	1.599344e+04 	8.113930e+08 	7.580531e-01 	3.879466e+38 	
1.201413e+06 	1.581505e+04 	8.092131e+08 	7.665936e-01 	3.879464e+38 	
1.201421e+06 	1.563864e+04 	8.070394e+08 	7.752304e-01 	3.879462e+38 	
1.201428e+06 	1.546420e+04 	8.048721e+08 	7.839645e-01 	3.879461e+38 	
1.201435e+06 	1.529171e+04 	8.027111e+08 	7.927970e-01 	3.879459e+38 	
1.201442e+06 	1.512114e+04 	8.005564e+08 	8.017290e-01 	3.879457e+38 	
1.201450e+06 	1.495247e+04 	7.984081e+08 	8.107617e-01 	3.879455e+38 	
1.201457e+06 	1.478568e+04 	7.962660e+08 	8.198961e-01 	3.879454e+38 	
1.201464e+06 	1.462076e+04 	7.941302e+08 	8.291335e-01 	3.879452e+38 	
1.201471e+06 	1.445767e+04 	7.920006e+08 	8.384750e-01 	3.879450e+38 	
1.201478e+06 	1.429640e+04 	7.898773e+08 	8.479217e-01 	3.879448e+38 	
1.201485e+06 	1.413694e+04 	7.877601e+08 	8.574749e-01 	3.879447e+38 	
1.201493e+06 	1.397925e+04 	7.856491e+08 	8.671357e-01 	3.879445e+38 	
1.201500e+06 	1.382332e+04 	7.835443e+08 	8.769054e-01 	3.879443e+38 	
1.201507e+06 	1.366913e+04 	7.814455e+08 	8.867852e-01 	3.879441e+38 	
1.201514e+06 	1.351666e+04 	7.793530e+08 	8.967763e-01 	3.879440e+38 	
1.201521e+06 	1.336589e+04 	7.772666e+08 	9.068799e-01 	3.879438e+38 	
1.201528e+06 	1.321680e+04 	7.751863e+08 	9.170975e-01 	3.879436e+38 	
1.201535e+06 	1.306937e+04 	7.731121e+08 	9.274301e-01 	3.879434e+38 	
1.201542e+06 	1.292359e+04 	7.710439e+08 	9.378792e-01 	3.879433e+38 	
1.201549e+06 	1.277944e+04 	7.689818e+08 	9.484460e-01 	3.879431e+38 	
1.201557e+06 	1.263689e+04 	7.669256e+08 	9.591319e-01 	3.879429e+38 	
1.201564e+06 	1.249593e+04 	7.648755e+08 	9.699382e-01 	3.879427e+38 	
1.201571e+06 	1.235655e+04 	7.628314e+08 	9.808663e-01 	3.879425e+38 	
1.201578e+06 	1.221872e+04 	7.607932e+08 	9.919175e-01 	3.879424e+38 	
1.201585e+06 	1.208243e+04 	7.587611e+08 	1.003093e+00 	3.879422e+38 	
1.201592e+06 	1.194765e+04 	7.567349e+08 	1.014395e+00 	3.879420e+38 	
1.201599e+06 	1.181438e+04 	7.547146e+08 	1.025824e+00 	3.879418e+38 	
1.201606e+06 	1.168260e+04 	7.527002e+08 	1.037382e+00 	3.879417e+38 	
1.201613e+06 	1.155229e+04 	7.506917e+08 	1.049070e+00 	3.879415e+38 	
1.201620e+06 	1.142343e+04 	7.486890e+08 	1.060889e+00 	3.879413e+38 	
1.201627e+06 	1.129601e+04 	7.466922e+08 	1.072842e+00 	3.879411e+38 	
1.201634e+06 	1.117001e+04 	7.447012e+08 	1.084930e+00 	3.879410e+38 	
1.201641e+06 	1.104541e+04 	7.427161e+08 	1.097154e+00 	3.879408e+38 	
1.201648e+06 	1.092221e+04 	7.407369e+08 	1.109515e+00 	3.879406e+38 	
1.201655e+06 	1.080038e+04 	7.387634e+08 	1.122016e+00 	3.879404e+38 	
1.201662e+06 	1.067991e+04 	7.367957e+08 	1.134658e+00 	3.879403e+38 	
1.201669e+06 	1.056078e+04 	7.348337e+08 	1.147442e+00 	3.879401e+38 	
1.201676e+06 	1.044298e+04 	7.328774e+08 	1.160370e+00 	3.879399e+38 	
1.201683e+06 	1.032649e+04 	7.309269e+08 	1.173444e+00 	3.879397e+38 	
1.201689e+06 	1.021131e+04 	7.289820e+08 	1.186665e+00 	3.879396e+38 	
1.201696e+06 	1.009741e+04 	7.270429e+08 	1.200036e+00 	3.879394e+38 	
1.201703e+06 	9.984777e+03 	7.251095e+08 	1.213556e+00 	3.879392e+38 	
1.201710e+06 	9.873403e+03 	7.231818e+08 	1.227230e+00 	3.879390e+38 	
1.201717e+06 	9.763271e+03 	7.212596e+08 	1.241057e+00 	3.879389e+38 	
1.201724e+06 	9.654368e+03 	7.193432e+08 	1.255040e+00 	3.879387e+38 	
1.201731e+06 	9.546679e+03 	7.174323e+08 	1.269181e+00 	3.879385e+38 	
1.201738e+06 	9.440192e+03 	7.155270e+08 	1.283481e+00 	3.879383e+38 	
1.201745e+06 	9.334892e+03 	7.136272e+08 	1.297942e+00 	3.879381e+38 	
1.201752e+06 	9.230767e+03 	7.117331e+08 	1.312566e+00 	3.879380e+38 	
1.201758e+06 	9.127803e+03 	7.098444e+08 	1.327355e+00 	3.879378e+38 	
1.201765e+06 	9.025988e+03 	7.079614e+08 	1.342310e+00 	3.879376e+38 	
1.201772e+06 	8.925308e+03 	7.060839e+08 	1.357434e+00 	3.879374e+38 	
1.201779e+06 	8.825752e+03 	7.042119e+08 	1.372729e+00 	3.879373e+38 	
1.201786e+06 	8.727306e+03 	7.023453e+08 	1.388196e+00 	3.879371e+38 	
1.201793e+06 	8.629958e+03 	7.004842e+08 	1.403837e+00 	3.879369e+38 	
1.201799e+06 	8.533696e+03 	6.986286e+08 	1.419654e+00 	3.879367e+38 	
1.201806e+06 	8.438508e+03 	6.967784e+08 	1.435650e+00 	3.879366e+38 	
1.201813e+06 	8.344381e+03 	6.949335e+08 	1.451826e+00 	3.879364e+38 	
1.201820e+06 	8.251305e+03 	6.930941e+08 	1.468184e+00 	3.879362e+38 	
1.201827e+06 	8.159267e+03 	6.912602e+08 	1.484726e+00 	3.879360e+38 	
1.201833e+06 	8.068255e+03 	6.894316e+08 	1.501455e+00 	3.879358e+38 	
1.201840e+06 	7.978258e+03 	6.876084e+08 	1.518373e+00 	3.879357e+38 	
1.201847e+06 	7.889266e+03 	6.857906e+08 	1.535481e+00 	3.879355e+38 	
1.201854e+06 	7.801266e+03 	6.839780e+08 	1.552781e+00 	3.879353e+38 	
1.201860e+06 	7.714247e+03 	6.821708e+08 	1.570277e+00 	3.879351e+38 	
1.201867e+06 	7.628199e+03 	6.803688e+08 	1.587970e+00 	3.879350e+38 	
1.201874e+06 	7.543111e+03 	6.785721e+08 	1.605862e+00 	3.879348e+38 	
1.201881e+06 	7.458973e+03 	6.767807e+08 	1.623956e+00 	3.879346e+38 	
1.201887e+06 	7.375772e+03 	6.749947e+08 	1.642254e+00 	3.879344e+38 	
1.201894e+06 	7.293500e+03 	6.732138e+08 	1.660758e+00 	3.879342e+38 	
1.201901e+06 	7.212145e+03 	6.714382e+08 	1.679470e+00 	3.879341e+38 	
1.201907e+06 	7.131698e+03 	6.696677e+08 	1.698394e+00 	3.879339e+38 	
1.201914e+06 	7.052148e+03 	6.679025e+08 	1.717530e+00 	3.879337e+38 	
1.201921e+06 	6.973486e+03 	6.661424e+08 	1.736882e+00 	3.879335e+38 	
1.201928e+06 	6.895701e+03 	6.643875e+08 	1.756453e+00 	3.879334e+38 	
1.201934e+06 	6.818783e+03 	6.626377e+08 	1.776244e+00 	3.879332e+38 	
1.201941e+06 	6.742724e+03 	6.608931e+08 	1.796257e+00 	3.879330e+38 	
1.201948e+06 	6.667513e+03 	6.591537e+08 	1.816497e+00 	3.879328e+38 	
1.201954e+06 	6.593141e+03 	6.574194e+08 	1.836964e+00 	3.879326e+38 	
1.201961e+06 	6.519598e+03 	6.556901e+08 	1.857662e+00 	3.879325e+38 	
1.201968e+06 	6.446876e+03 	6.539659e+08 	1.878594e+00 	3.879323e+38 	
1.201974e+06 	6.374965e+03 	6.522468e+08 	1.899761e+00 	3.879321e+38 	
1.201981e+06 	6.303856e+03 	6.505327e+08 	1.921166e+00 	3.879319e+38 	
1.201987e+06 	6.233540e+03 	6.488236e+08 	1.942813e+00 	3.879317e+38 	
1.201994e+06 	6.164009e+03 	6.471196e+08 	1.964704e+00 	3.879316e+38 	
1.202001e+06 	6.095253e+03 	6.454206e+08 	1.986842e+00 	3.879314e+38 	
1.202007e+06 	6.027264e+03 	6.437266e+08 	2.009229e+00 	3.879312e+38 	
1.202014e+06 	5.960034e+03 	6.420376e+08 	2.031868e+00 	3.879310e+38 	
1.202021e+06 	5.893553e+03 	6.403536e+08 	2.054762e+00 	3.879308e+38 	
1.202027e+06 	5.827814e+03 	6.386745e+08 	2.077915e+00 	3.879307e+38 	
1.202034e+06 	5.762808e+03 	6.370003e+08 	2.101328e+00 	3.879305e+38 	
1.202040e+06 	5.698528e+03 	6.353311e+08 	2.125005e+00 	3.879303e+38 	
1.202047e+06 	5.634964e+03 	6.336667e+08 	2.148949e+00 	3.879301e+38 	
1.202053e+06 	5.572109e+03 	6.320072e+08 	2.173163e+00 	3.879299e+38 	
1.202060e+06 	5.509956e+03 	6.303527e+08 	2.197649e+00 	3.879298e+38 	
1.202067e+06 	5.448496e+03 	6.287030e+08 	2.222412e+00 	3.879296e+38 	
1.202073e+06 	5.387721e+03 	6.270582e+08 	2.247453e+00 	3.879294e+38 	
1.202080e+06 	5.327624e+03 	6.254183e+08 	2.272777e+00 	3.879292e+38 	
1.202086e+06 	5.268198e+03 	6.237831e+08 	2.298386e+00 	3.879290e+38 	
1.202093e+06 	5.209434e+03 	6.221528e+08 	2.324284e+00 	3.879289e+38 	
1.202099e+06 	5.151326e+03 	6.205272e+08 	2.350473e+00 	3.879287e+38 	
1.202106e+06 	5.093866e+03 	6.189064e+08 	2.376958e+00 	3.879285e+38 	
1.202112e+06 	5.037047e+03 	6.172904e+08 	2.403741e+00 	3.879283e+38 	
1.202119e+06 	4.980862e+03 	6.156792e+08 	2.430826e+00 	3.879281e+38 	
1.202125e+06 	4.925303e+03 	6.140727e+08 	2.458216e+00 	3.879280e+38 	
1.202132e+06 	4.870365e+03 	6.124710e+08 	2.485915e+00 	3.879278e+38 	
1.202138e+06 	4.816039e+03 	6.108740e+08 	2.513925e+00 	3.879276e+38 	
