r (cm)      	rho (g/cm3) 	T (K)       	u (cm/s)    	L* (erg/s)  			 Edot= 6.426611e+38
1.200000e+06 	1.036587e+05 	1.316911e+09 	2.085392e-01 	4.127735e+38 	
1.200010e+06 	1.025441e+05 	1.313440e+09 	2.108022e-01 	4.127732e+38 	
1.200019e+06 	1.014415e+05 	1.309978e+09 	2.130897e-01 	4.127728e+38 	
1.200028e+06 	1.003507e+05 	1.306526e+09 	2.154020e-01 	4.127724e+38 	
1.200038e+06 	9.927167e+04 	1.303084e+09 	2.177395e-01 	4.127721e+38 	
1.200047e+06 	9.820425e+04 	1.299652e+09 	2.201023e-01 	4.127717e+38 	
1.200057e+06 	9.714830e+04 	1.296228e+09 	2.224908e-01 	4.127714e+38 	
1.200066e+06 	9.610370e+04 	1.292815e+09 	2.249052e-01 	4.127710e+38 	
1.200075e+06 	9.507034e+04 	1.289411e+09 	2.273458e-01 	4.127706e+38 	
1.200084e+06 	9.404809e+04 	1.286017e+09 	2.298128e-01 	4.127703e+38 	
1.200094e+06 	9.303683e+04 	1.282632e+09 	2.323067e-01 	4.127699e+38 	
1.200103e+06 	9.203645e+04 	1.279257e+09 	2.348276e-01 	4.127696e+38 	
1.200112e+06 	9.104682e+04 	1.275891e+09 	2.373759e-01 	4.127692e+38 	
1.200122e+06 	9.006783e+04 	1.272535e+09 	2.399519e-01 	4.127689e+38 	
1.200131e+06 	8.909937e+04 	1.269188e+09 	2.425558e-01 	4.127685e+38 	
1.200140e+06 	8.814133e+04 	1.265850e+09 	2.451880e-01 	4.127681e+38 	
1.200149e+06 	8.719358e+04 	1.262522e+09 	2.478487e-01 	4.127678e+38 	
1.200158e+06 	8.625603e+04 	1.259204e+09 	2.505384e-01 	4.127674e+38 	
1.200168e+06 	8.532855e+04 	1.255894e+09 	2.532572e-01 	4.127671e+38 	
1.200177e+06 	8.441105e+04 	1.252594e+09 	2.560055e-01 	4.127667e+38 	
1.200186e+06 	8.350342e+04 	1.249303e+09 	2.587837e-01 	4.127664e+38 	
1.200195e+06 	8.260554e+04 	1.246021e+09 	2.615920e-01 	4.127660e+38 	
1.200204e+06 	8.171732e+04 	1.242749e+09 	2.644308e-01 	4.127657e+38 	
1.200213e+06 	8.083865e+04 	1.239485e+09 	2.673005e-01 	4.127653e+38 	
1.200222e+06 	7.996943e+04 	1.236231e+09 	2.702012e-01 	4.127649e+38 	
1.200231e+06 	7.910955e+04 	1.232986e+09 	2.731335e-01 	4.127646e+38 	
1.200240e+06 	7.825892e+04 	1.229750e+09 	2.760976e-01 	4.127642e+38 	
1.200250e+06 	7.741743e+04 	1.226523e+09 	2.790938e-01 	4.127639e+38 	
1.200259e+06 	7.658500e+04 	1.223306e+09 	2.821226e-01 	4.127635e+38 	
1.200268e+06 	7.576151e+04 	1.220097e+09 	2.851843e-01 	4.127632e+38 	
1.200277e+06 	7.494688e+04 	1.216897e+09 	2.882791e-01 	4.127628e+38 	
1.200286e+06 	7.414101e+04 	1.213706e+09 	2.914076e-01 	4.127625e+38 	
1.200295e+06 	7.334380e+04 	1.210524e+09 	2.945701e-01 	4.127621e+38 	
1.200304e+06 	7.255517e+04 	1.207352e+09 	2.977668e-01 	4.127618e+38 	
1.200313e+06 	7.177502e+04 	1.204187e+09 	3.009983e-01 	4.127614e+38 	
1.200321e+06 	7.100325e+04 	1.201032e+09 	3.042648e-01 	4.127610e+38 	
1.200330e+06 	7.023978e+04 	1.197886e+09 	3.075668e-01 	4.127607e+38 	
1.200339e+06 	6.948453e+04 	1.194749e+09 	3.109047e-01 	4.127603e+38 	
1.200348e+06 	6.873739e+04 	1.191620e+09 	3.142788e-01 	4.127600e+38 	
1.200357e+06 	6.799828e+04 	1.188501e+09 	3.176895e-01 	4.127596e+38 	
1.200366e+06 	6.726713e+04 	1.185390e+09 	3.211372e-01 	4.127593e+38 	
1.200375e+06 	6.654383e+04 	1.182287e+09 	3.246223e-01 	4.127589e+38 	
1.200384e+06 	6.582832e+04 	1.179194e+09 	3.281453e-01 	4.127586e+38 	
1.200393e+06 	6.512049e+04 	1.176109e+09 	3.317065e-01 	4.127582e+38 	
1.200402e+06 	6.442028e+04 	1.173032e+09 	3.353064e-01 	4.127579e+38 	
1.200410e+06 	6.372760e+04 	1.169965e+09 	3.389453e-01 	4.127575e+38 	
1.200419e+06 	6.304236e+04 	1.166906e+09 	3.426238e-01 	4.127572e+38 	
1.200428e+06 	6.236450e+04 	1.163856e+09 	3.463421e-01 	4.127568e+38 	
1.200437e+06 	6.169392e+04 	1.160814e+09 	3.501009e-01 	4.127565e+38 	
1.200446e+06 	6.103055e+04 	1.157780e+09 	3.539004e-01 	4.127561e+38 	
1.200454e+06 	6.037431e+04 	1.154756e+09 	3.577412e-01 	4.127558e+38 	
1.200463e+06 	5.972514e+04 	1.151739e+09 	3.616237e-01 	4.127554e+38 	
1.200472e+06 	5.908294e+04 	1.148732e+09 	3.655483e-01 	4.127551e+38 	
1.200481e+06 	5.844764e+04 	1.145732e+09 	3.695155e-01 	4.127547e+38 	
1.200489e+06 	5.781918e+04 	1.142741e+09 	3.735258e-01 	4.127544e+38 	
1.200498e+06 	5.719748e+04 	1.139759e+09 	3.775796e-01 	4.127540e+38 	
1.200507e+06 	5.658246e+04 	1.136785e+09 	3.816774e-01 	4.127537e+38 	
1.200515e+06 	5.597405e+04 	1.133819e+09 	3.858197e-01 	4.127533e+38 	
1.200524e+06 	5.537219e+04 	1.130862e+09 	3.900070e-01 	4.127530e+38 	
1.200533e+06 	5.477679e+04 	1.127913e+09 	3.942397e-01 	4.127526e+38 	
1.200541e+06 	5.418780e+04 	1.124972e+09 	3.985184e-01 	4.127523e+38 	
1.200550e+06 	5.360514e+04 	1.122039e+09 	4.028435e-01 	4.127519e+38 	
1.200559e+06 	5.302875e+04 	1.119115e+09 	4.072156e-01 	4.127516e+38 	
1.200567e+06 	5.245856e+04 	1.116199e+09 	4.116351e-01 	4.127512e+38 	
1.200576e+06 	5.189449e+04 	1.113291e+09 	4.161026e-01 	4.127509e+38 	
1.200584e+06 	5.133649e+04 	1.110391e+09 	4.206185e-01 	4.127505e+38 	
1.200593e+06 	5.078449e+04 	1.107500e+09 	4.251836e-01 	4.127502e+38 	
1.200602e+06 	5.023843e+04 	1.104616e+09 	4.297981e-01 	4.127498e+38 	
1.200610e+06 	4.969824e+04 	1.101741e+09 	4.344628e-01 	4.127495e+38 	
1.200619e+06 	4.916385e+04 	1.098874e+09 	4.391781e-01 	4.127491e+38 	
1.200627e+06 	4.863522e+04 	1.096014e+09 	4.439445e-01 	4.127488e+38 	
1.200636e+06 	4.811226e+04 	1.093163e+09 	4.487627e-01 	4.127484e+38 	
1.200644e+06 	4.759493e+04 	1.090320e+09 	4.536333e-01 	4.127481e+38 	
1.200653e+06 	4.708317e+04 	1.087485e+09 	4.585567e-01 	4.127477e+38 	
1.200661e+06 	4.657690e+04 	1.084658e+09 	4.635335e-01 	4.127474e+38 	
1.200670e+06 	4.607608e+04 	1.081839e+09 	4.685643e-01 	4.127470e+38 	
1.200678e+06 	4.558064e+04 	1.079028e+09 	4.736498e-01 	4.127467e+38 	
1.200687e+06 	4.509053e+04 	1.076224e+09 	4.787905e-01 	4.127463e+38 	
1.200695e+06 	4.460570e+04 	1.073429e+09 	4.839870e-01 	4.127460e+38 	
1.200703e+06 	4.412607e+04 	1.070641e+09 	4.892399e-01 	4.127456e+38 	
1.200712e+06 	4.365160e+04 	1.067861e+09 	4.945498e-01 	4.127453e+38 	
1.200720e+06 	4.318223e+04 	1.065089e+09 	4.999173e-01 	4.127449e+38 	
1.200729e+06 	4.271791e+04 	1.062325e+09 	5.053431e-01 	4.127446e+38 	
1.200737e+06 	4.225859e+04 	1.059569e+09 	5.108278e-01 	4.127442e+38 	
1.200745e+06 	4.180420e+04 	1.056820e+09 	5.163721e-01 	4.127439e+38 	
1.200754e+06 	4.135470e+04 	1.054079e+09 	5.219765e-01 	4.127435e+38 	
1.200762e+06 	4.091003e+04 	1.051346e+09 	5.276418e-01 	4.127432e+38 	
1.200770e+06 	4.047014e+04 	1.048621e+09 	5.333686e-01 	4.127428e+38 	
1.200779e+06 	4.003498e+04 	1.045903e+09 	5.391575e-01 	4.127425e+38 	
1.200787e+06 	3.960450e+04 	1.043193e+09 	5.450093e-01 	4.127421e+38 	
1.200795e+06 	3.917865e+04 	1.040490e+09 	5.509246e-01 	4.127418e+38 	
1.200804e+06 	3.875738e+04 	1.037795e+09 	5.569041e-01 	4.127414e+38 	
1.200812e+06 	3.834064e+04 	1.035108e+09 	5.629486e-01 	4.127411e+38 	
1.200820e+06 	3.792838e+04 	1.032428e+09 	5.690586e-01 	4.127408e+38 	
1.200829e+06 	3.752055e+04 	1.029756e+09 	5.752350e-01 	4.127404e+38 	
1.200837e+06 	3.711711e+04 	1.027091e+09 	5.814784e-01 	4.127401e+38 	
1.200845e+06 	3.671801e+04 	1.024434e+09 	5.877896e-01 	4.127397e+38 	
1.200853e+06 	3.632319e+04 	1.021784e+09 	5.941693e-01 	4.127394e+38 	
1.200862e+06 	3.593263e+04 	1.019142e+09 	6.006183e-01 	4.127390e+38 	
1.200870e+06 	3.554626e+04 	1.016507e+09 	6.071373e-01 	4.127387e+38 	
1.200878e+06 	3.516404e+04 	1.013880e+09 	6.137270e-01 	4.127383e+38 	
1.200886e+06 	3.478594e+04 	1.011260e+09 	6.203883e-01 	4.127380e+38 	
1.200894e+06 	3.441190e+04 	1.008647e+09 	6.271219e-01 	4.127376e+38 	
1.200903e+06 	3.404189e+04 	1.006042e+09 	6.339286e-01 	4.127373e+38 	
1.200911e+06 	3.367585e+04 	1.003444e+09 	6.408091e-01 	4.127369e+38 	
1.200919e+06 	3.331375e+04 	1.000853e+09 	6.477644e-01 	4.127366e+38 	
1.200927e+06 	3.295554e+04 	9.982701e+08 	6.547952e-01 	4.127362e+38 	
1.200935e+06 	3.260118e+04 	9.956941e+08 	6.619023e-01 	4.127359e+38 	
1.200943e+06 	3.225064e+04 	9.931254e+08 	6.690865e-01 	4.127355e+38 	
1.200951e+06 	3.190386e+04 	9.905639e+08 	6.763488e-01 	4.127352e+38 	
1.200960e+06 	3.156081e+04 	9.880097e+08 	6.836898e-01 	4.127348e+38 	
1.200968e+06 	3.122145e+04 	9.854626e+08 	6.911106e-01 	4.127345e+38 	
1.200976e+06 	3.088574e+04 	9.829227e+08 	6.986119e-01 	4.127341e+38 	
1.200984e+06 	3.055364e+04 	9.803899e+08 	7.061947e-01 	4.127338e+38 	
1.200992e+06 	3.022511e+04 	9.778643e+08 	7.138598e-01 	4.127335e+38 	
1.201000e+06 	2.990011e+04 	9.753457e+08 	7.216080e-01 	4.127331e+38 	
1.201008e+06 	2.957861e+04 	9.728342e+08 	7.294404e-01 	4.127328e+38 	
1.201016e+06 	2.926056e+04 	9.703299e+08 	7.373579e-01 	4.127324e+38 	
1.201024e+06 	2.894594e+04 	9.678327e+08 	7.453613e-01 	4.127321e+38 	
1.201032e+06 	2.863469e+04 	9.653425e+08 	7.534515e-01 	4.127317e+38 	
1.201040e+06 	2.832680e+04 	9.628594e+08 	7.616296e-01 	4.127314e+38 	
1.201048e+06 	2.802221e+04 	9.603832e+08 	7.698965e-01 	4.127310e+38 	
1.201056e+06 	2.772090e+04 	9.579140e+08 	7.782531e-01 	4.127307e+38 	
1.201064e+06 	2.742283e+04 	9.554517e+08 	7.867004e-01 	4.127303e+38 	
1.201072e+06 	2.712796e+04 	9.529964e+08 	7.952394e-01 	4.127300e+38 	
1.201080e+06 	2.683627e+04 	9.505480e+08 	8.038712e-01 	4.127296e+38 	
1.201088e+06 	2.654771e+04 	9.481065e+08 	8.125966e-01 	4.127293e+38 	
1.201096e+06 	2.626225e+04 	9.456720e+08 	8.214168e-01 	4.127289e+38 	
1.201104e+06 	2.597987e+04 	9.432443e+08 	8.303327e-01 	4.127286e+38 	
1.201112e+06 	2.570052e+04 	9.408235e+08 	8.393454e-01 	4.127282e+38 	
1.201120e+06 	2.542417e+04 	9.384095e+08 	8.484559e-01 	4.127279e+38 	
1.201128e+06 	2.515080e+04 	9.360023e+08 	8.576654e-01 	4.127275e+38 	
1.201136e+06 	2.488036e+04 	9.336019e+08 	8.669748e-01 	4.127272e+38 	
1.201143e+06 	2.461283e+04 	9.312082e+08 	8.763853e-01 	4.127268e+38 	
1.201151e+06 	2.434818e+04 	9.288213e+08 	8.858979e-01 	4.127265e+38 	
1.201159e+06 	2.408638e+04 	9.264411e+08 	8.955138e-01 	4.127262e+38 	
1.201167e+06 	2.382738e+04 	9.240677e+08 	9.052341e-01 	4.127258e+38 	
1.201175e+06 	2.357118e+04 	9.217010e+08 	9.150600e-01 	4.127255e+38 	
1.201183e+06 	2.331773e+04 	9.193410e+08 	9.249925e-01 	4.127251e+38 	
1.201191e+06 	2.306700e+04 	9.169877e+08 	9.350328e-01 	4.127248e+38 	
1.201199e+06 	2.281897e+04 	9.146410e+08 	9.451821e-01 	4.127244e+38 	
1.201206e+06 	2.257361e+04 	9.123009e+08 	9.554416e-01 	4.127241e+38 	
1.201214e+06 	2.233089e+04 	9.099673e+08 	9.658125e-01 	4.127237e+38 	
1.201222e+06 	2.209077e+04 	9.076404e+08 	9.762960e-01 	4.127234e+38 	
1.201230e+06 	2.185324e+04 	9.053201e+08 	9.868933e-01 	4.127230e+38 	
1.201238e+06 	2.161826e+04 	9.030063e+08 	9.976056e-01 	4.127227e+38 	
1.201245e+06 	2.138581e+04 	9.006991e+08 	1.008434e+00 	4.127223e+38 	
1.201253e+06 	2.115586e+04 	8.983985e+08 	1.019380e+00 	4.127220e+38 	
1.201261e+06 	2.092838e+04 	8.961043e+08 	1.030445e+00 	4.127216e+38 	
1.201269e+06 	2.070334e+04 	8.938166e+08 	1.041631e+00 	4.127213e+38 	
1.201276e+06 	2.048073e+04 	8.915353e+08 	1.052937e+00 	4.127209e+38 	
1.201284e+06 	2.026051e+04 	8.892604e+08 	1.064366e+00 	4.127206e+38 	
1.201292e+06 	2.004266e+04 	8.869920e+08 	1.075920e+00 	4.127202e+38 	
1.201300e+06 	1.982715e+04 	8.847300e+08 	1.087599e+00 	4.127199e+38 	
1.201307e+06 	1.961395e+04 	8.824745e+08 	1.099404e+00 	4.127195e+38 	
1.201315e+06 	1.940305e+04 	8.802254e+08 	1.111338e+00 	4.127192e+38 	
1.201323e+06 	1.919442e+04 	8.779826e+08 	1.123401e+00 	4.127188e+38 	
1.201330e+06 	1.898803e+04 	8.757461e+08 	1.135596e+00 	4.127185e+38 	
1.201338e+06 	1.878386e+04 	8.735160e+08 	1.147922e+00 	4.127181e+38 	
1.201346e+06 	1.858189e+04 	8.712921e+08 	1.160383e+00 	4.127178e+38 	
1.201353e+06 	1.838208e+04 	8.690745e+08 	1.172978e+00 	4.127174e+38 	
1.201361e+06 	1.818443e+04 	8.668632e+08 	1.185711e+00 	4.127171e+38 	
1.201369e+06 	1.798890e+04 	8.646581e+08 	1.198582e+00 	4.127167e+38 	
1.201376e+06 	1.779547e+04 	8.624593e+08 	1.211592e+00 	4.127164e+38 	
1.201384e+06 	1.760413e+04 	8.602668e+08 	1.224744e+00 	4.127160e+38 	
1.201392e+06 	1.741484e+04 	8.580805e+08 	1.238038e+00 	4.127157e+38 	
1.201399e+06 	1.722758e+04 	8.559003e+08 	1.251477e+00 	4.127153e+38 	
1.201407e+06 	1.704234e+04 	8.537264e+08 	1.265062e+00 	4.127150e+38 	
1.201414e+06 	1.685909e+04 	8.515585e+08 	1.278794e+00 	4.127146e+38 	
1.201422e+06 	1.667781e+04 	8.493968e+08 	1.292675e+00 	4.127143e+38 	
1.201430e+06 	1.649849e+04 	8.472412e+08 	1.306707e+00 	4.127139e+38 	
1.201437e+06 	1.632108e+04 	8.450917e+08 	1.320892e+00 	4.127136e+38 	
1.201445e+06 	1.614559e+04 	8.429483e+08 	1.335230e+00 	4.127132e+38 	
1.201452e+06 	1.597198e+04 	8.408110e+08 	1.349724e+00 	4.127129e+38 	
1.201460e+06 	1.580024e+04 	8.386798e+08 	1.364375e+00 	4.127125e+38 	
1.201467e+06 	1.563035e+04 	8.365546e+08 	1.379186e+00 	4.127122e+38 	
1.201475e+06 	1.546228e+04 	8.344354e+08 	1.394157e+00 	4.127118e+38 	
1.201483e+06 	1.529603e+04 	8.323222e+08 	1.409290e+00 	4.127115e+38 	
1.201490e+06 	1.513155e+04 	8.302150e+08 	1.424588e+00 	4.127111e+38 	
1.201498e+06 	1.496885e+04 	8.281137e+08 	1.440052e+00 	4.127108e+38 	
1.201505e+06 	1.480790e+04 	8.260184e+08 	1.455684e+00 	4.127104e+38 	
1.201513e+06 	1.464867e+04 	8.239290e+08 	1.471486e+00 	4.127101e+38 	
1.201520e+06 	1.449116e+04 	8.218455e+08 	1.487459e+00 	4.127097e+38 	
1.201528e+06 	1.433535e+04 	8.197681e+08 	1.503606e+00 	4.127094e+38 	
1.201535e+06 	1.418120e+04 	8.176965e+08 	1.519928e+00 	4.127090e+38 	
1.201543e+06 	1.402872e+04 	8.156308e+08 	1.536427e+00 	4.127086e+38 	
1.201550e+06 	1.387788e+04 	8.135709e+08 	1.553105e+00 	4.127083e+38 	
1.201557e+06 	1.372865e+04 	8.115169e+08 	1.569964e+00 	4.127079e+38 	
1.201565e+06 	1.358103e+04 	8.094686e+08 	1.587007e+00 	4.127076e+38 	
1.201572e+06 	1.343500e+04 	8.074262e+08 	1.604234e+00 	4.127072e+38 	
1.201580e+06 	1.329054e+04 	8.053896e+08 	1.621649e+00 	4.127069e+38 	
1.201587e+06 	1.314764e+04 	8.033587e+08 	1.639252e+00 	4.127065e+38 	
1.201595e+06 	1.300626e+04 	8.013337e+08 	1.657047e+00 	4.127062e+38 	
1.201602e+06 	1.286641e+04 	7.993144e+08 	1.675034e+00 	4.127058e+38 	
1.201609e+06 	1.272807e+04 	7.973009e+08 	1.693217e+00 	4.127055e+38 	
1.201617e+06 	1.259121e+04 	7.952930e+08 	1.711598e+00 	4.127051e+38 	
1.201624e+06 	1.245582e+04 	7.932908e+08 	1.730178e+00 	4.127048e+38 	
1.201632e+06 	1.232189e+04 	7.912943e+08 	1.748959e+00 	4.127044e+38 	
1.201639e+06 	1.218940e+04 	7.893035e+08 	1.767945e+00 	4.127040e+38 	
1.201646e+06 	1.205833e+04 	7.873183e+08 	1.787137e+00 	4.127037e+38 	
1.201654e+06 	1.192867e+04 	7.853388e+08 	1.806537e+00 	4.127033e+38 	
1.201661e+06 	1.180041e+04 	7.833649e+08 	1.826148e+00 	4.127030e+38 	
1.201669e+06 	1.167352e+04 	7.813967e+08 	1.845971e+00 	4.127026e+38 	
1.201676e+06 	1.154800e+04 	7.794340e+08 	1.866010e+00 	4.127023e+38 	
1.201683e+06 	1.142383e+04 	7.774769e+08 	1.886266e+00 	4.127019e+38 	
1.201691e+06 	1.130100e+04 	7.755254e+08 	1.906743e+00 	4.127016e+38 	
1.201698e+06 	1.117948e+04 	7.735793e+08 	1.927441e+00 	4.127012e+38 	
1.201705e+06 	1.105927e+04 	7.716388e+08 	1.948365e+00 	4.127008e+38 	
1.201713e+06 	1.094036e+04 	7.697038e+08 	1.969515e+00 	4.127005e+38 	
1.201720e+06 	1.082272e+04 	7.677744e+08 	1.990895e+00 	4.127001e+38 	
1.201727e+06 	1.070635e+04 	7.658504e+08 	2.012507e+00 	4.126998e+38 	
1.201735e+06 	1.059123e+04 	7.639320e+08 	2.034354e+00 	4.126994e+38 	
1.201742e+06 	1.047734e+04 	7.620190e+08 	2.056438e+00 	4.126990e+38 	
1.201749e+06 	1.036469e+04 	7.601114e+08 	2.078762e+00 	4.126987e+38 	
1.201756e+06 	1.025324e+04 	7.582093e+08 	2.101328e+00 	4.126983e+38 	
1.201764e+06 	1.014299e+04 	7.563125e+08 	2.124139e+00 	4.126980e+38 	
1.201771e+06 	1.003393e+04 	7.544211e+08 	2.147198e+00 	4.126976e+38 	
1.201778e+06 	9.926037e+03 	7.525352e+08 	2.170507e+00 	4.126973e+38 	
1.201785e+06 	9.819307e+03 	7.506545e+08 	2.194069e+00 	4.126969e+38 	
1.201793e+06 	9.713724e+03 	7.487793e+08 	2.217887e+00 	4.126965e+38 	
1.201800e+06 	9.609276e+03 	7.469095e+08 	2.241964e+00 	4.126962e+38 	
1.201807e+06 	9.505952e+03 	7.450449e+08 	2.266302e+00 	4.126958e+38 	
1.201814e+06 	9.403739e+03 	7.431857e+08 	2.290904e+00 	4.126955e+38 	
1.201822e+06 	9.302624e+03 	7.413317e+08 	2.315773e+00 	4.126951e+38 	
1.201829e+06 	9.202597e+03 	7.394831e+08 	2.340913e+00 	4.126947e+38 	
1.201836e+06 	9.103646e+03 	7.376396e+08 	2.366325e+00 	4.126944e+38 	
1.201843e+06 	9.005758e+03 	7.358014e+08 	2.392013e+00 	4.126940e+38 	
1.201850e+06 	8.908923e+03 	7.339685e+08 	2.417980e+00 	4.126936e+38 	
1.201858e+06 	8.813129e+03 	7.321408e+08 	2.444229e+00 	4.126933e+38 	
1.201865e+06 	8.718366e+03 	7.303183e+08 	2.470763e+00 	4.126929e+38 	
1.201872e+06 	8.624621e+03 	7.285011e+08 	2.497585e+00 	4.126926e+38 	
1.201879e+06 	8.531884e+03 	7.266890e+08 	2.524698e+00 	4.126922e+38 	
1.201886e+06 	8.440144e+03 	7.248821e+08 	2.552106e+00 	4.126918e+38 	
1.201894e+06 	8.349391e+03 	7.230803e+08 	2.579811e+00 	4.126915e+38 	
1.201901e+06 	8.259614e+03 	7.212837e+08 	2.607817e+00 	4.126911e+38 	
1.201908e+06 	8.170802e+03 	7.194922e+08 	2.636127e+00 	4.126907e+38 	
1.201915e+06 	8.082945e+03 	7.177057e+08 	2.664744e+00 	4.126904e+38 	
1.201922e+06 	7.996032e+03 	7.159244e+08 	2.693672e+00 	4.126900e+38 	
1.201929e+06 	7.910054e+03 	7.141483e+08 	2.722914e+00 	4.126896e+38 	
1.201937e+06 	7.825001e+03 	7.123772e+08 	2.752474e+00 	4.126893e+38 	
1.201944e+06 	7.740862e+03 	7.106111e+08 	2.782354e+00 	4.126889e+38 	
1.201951e+06 	7.657628e+03 	7.088501e+08 	2.812559e+00 	4.126885e+38 	
1.201958e+06 	7.575289e+03 	7.070941e+08 	2.843092e+00 	4.126882e+38 	
1.201965e+06 	7.493835e+03 	7.053431e+08 	2.873956e+00 	4.126878e+38 	
1.201972e+06 	7.413257e+03 	7.035971e+08 	2.905155e+00 	4.126874e+38 	
1.201979e+06 	7.333545e+03 	7.018561e+08 	2.936693e+00 	4.126871e+38 	
1.201986e+06 	7.254691e+03 	7.001200e+08 	2.968574e+00 	4.126867e+38 	
1.201993e+06 	7.176685e+03 	6.983890e+08 	3.000801e+00 	4.126863e+38 	
1.202001e+06 	7.099517e+03 	6.966630e+08 	3.033377e+00 	4.126860e+38 	
1.202008e+06 	7.023179e+03 	6.949418e+08 	3.066307e+00 	4.126856e+38 	
1.202015e+06 	6.947662e+03 	6.932256e+08 	3.099595e+00 	4.126852e+38 	
1.202022e+06 	6.872956e+03 	6.915143e+08 	3.133244e+00 	4.126849e+38 	
1.202029e+06 	6.799054e+03 	6.898079e+08 	3.167258e+00 	4.126845e+38 	
1.202036e+06 	6.725947e+03 	6.881063e+08 	3.201642e+00 	4.126841e+38 	
1.202043e+06 	6.653626e+03 	6.864096e+08 	3.236399e+00 	4.126838e+38 	
1.202050e+06 	6.582082e+03 	6.847177e+08 	3.271534e+00 	4.126834e+38 	
1.202057e+06 	6.511308e+03 	6.830307e+08 	3.307049e+00 	4.126830e+38 	
1.202064e+06 	6.441295e+03 	6.813487e+08 	3.342951e+00 	4.126826e+38 	
1.202071e+06 	6.372034e+03 	6.796714e+08 	3.379242e+00 	4.126823e+38 	
1.202078e+06 	6.303519e+03 	6.779989e+08 	3.415927e+00 	4.126819e+38 	
1.202085e+06 	6.235740e+03 	6.763311e+08 	3.453011e+00 	4.126815e+38 	
1.202092e+06 	6.168689e+03 	6.746682e+08 	3.490497e+00 	4.126812e+38 	
1.202099e+06 	6.102360e+03 	6.730100e+08 	3.528390e+00 	4.126808e+38 	
1.202106e+06 	6.036744e+03 	6.713565e+08 	3.566694e+00 	4.126804e+38 	
1.202113e+06 	5.971834e+03 	6.697078e+08 	3.605415e+00 	4.126800e+38 	
1.202120e+06 	5.907621e+03 	6.680639e+08 	3.644555e+00 	4.126797e+38 	
1.202127e+06 	5.844099e+03 	6.664246e+08 	3.684121e+00 	4.126793e+38 	
1.202134e+06 	5.781260e+03 	6.647901e+08 	3.724116e+00 	4.126789e+38 	
1.202141e+06 	5.719097e+03 	6.631603e+08 	3.764546e+00 	4.126785e+38 	
1.202148e+06 	5.657602e+03 	6.615351e+08 	3.805414e+00 	4.126782e+38 	
1.202155e+06 	5.596768e+03 	6.599146e+08 	3.846726e+00 	4.126778e+38 	
1.202162e+06 	5.536588e+03 	6.582988e+08 	3.888487e+00 	4.126774e+38 	
1.202169e+06 	5.477056e+03 	6.566875e+08 	3.930701e+00 	4.126770e+38 	
1.202176e+06 	5.418163e+03 	6.550809e+08 	3.973373e+00 	4.126767e+38 	
1.202183e+06 	5.359904e+03 	6.534789e+08 	4.016509e+00 	4.126763e+38 	
1.202190e+06 	5.302271e+03 	6.518815e+08 	4.060113e+00 	4.126759e+38 	
1.202197e+06 	5.245258e+03 	6.502888e+08 	4.104190e+00 	4.126755e+38 	
1.202204e+06 	5.188858e+03 	6.487006e+08 	4.148746e+00 	4.126751e+38 	
1.202211e+06 	5.133065e+03 	6.471170e+08 	4.193786e+00 	4.126748e+38 	
1.202218e+06 	5.077871e+03 	6.455379e+08 	4.239314e+00 	4.126744e+38 	
