r (cm)      	rho (g/cm3) 	T (K)       	u (cm/s)    	L* (erg/s)  			 Edot= 8.650575e+38
1.200000e+06 	9.315120e+04 	1.345911e+09 	4.126721e-01 	4.562225e+38 	
1.200010e+06 	9.217577e+04 	1.342541e+09 	4.170312e-01 	4.562218e+38 	
1.200020e+06 	9.121056e+04 	1.339181e+09 	4.214364e-01 	4.562211e+38 	
1.200030e+06 	9.025545e+04 	1.335830e+09 	4.258882e-01 	4.562203e+38 	
1.200040e+06 	8.931035e+04 	1.332488e+09 	4.303870e-01 	4.562196e+38 	
1.200050e+06 	8.837514e+04 	1.329155e+09 	4.349333e-01 	4.562188e+38 	
1.200060e+06 	8.744972e+04 	1.325831e+09 	4.395277e-01 	4.562181e+38 	
1.200069e+06 	8.653400e+04 	1.322517e+09 	4.441706e-01 	4.562174e+38 	
1.200079e+06 	8.562786e+04 	1.319212e+09 	4.488626e-01 	4.562166e+38 	
1.200089e+06 	8.473122e+04 	1.315915e+09 	4.536041e-01 	4.562159e+38 	
1.200099e+06 	8.384396e+04 	1.312628e+09 	4.583958e-01 	4.562151e+38 	
1.200109e+06 	8.296599e+04 	1.309350e+09 	4.632380e-01 	4.562144e+38 	
1.200119e+06 	8.209722e+04 	1.306081e+09 	4.681315e-01 	4.562136e+38 	
1.200128e+06 	8.123754e+04 	1.302821e+09 	4.730766e-01 	4.562129e+38 	
1.200138e+06 	8.038687e+04 	1.299569e+09 	4.780740e-01 	4.562122e+38 	
1.200148e+06 	7.954510e+04 	1.296327e+09 	4.831242e-01 	4.562114e+38 	
1.200158e+06 	7.871215e+04 	1.293094e+09 	4.882277e-01 	4.562107e+38 	
1.200168e+06 	7.788792e+04 	1.289870e+09 	4.933852e-01 	4.562099e+38 	
1.200177e+06 	7.707232e+04 	1.286654e+09 	4.985971e-01 	4.562092e+38 	
1.200187e+06 	7.626526e+04 	1.283447e+09 	5.038641e-01 	4.562085e+38 	
1.200197e+06 	7.546665e+04 	1.280249e+09 	5.091868e-01 	4.562077e+38 	
1.200206e+06 	7.467641e+04 	1.277060e+09 	5.145657e-01 	4.562070e+38 	
1.200216e+06 	7.389444e+04 	1.273880e+09 	5.200015e-01 	4.562062e+38 	
1.200226e+06 	7.312066e+04 	1.270708e+09 	5.254947e-01 	4.562055e+38 	
1.200236e+06 	7.235498e+04 	1.267545e+09 	5.310459e-01 	4.562047e+38 	
1.200245e+06 	7.159732e+04 	1.264391e+09 	5.366558e-01 	4.562040e+38 	
1.200255e+06 	7.084759e+04 	1.261246e+09 	5.423249e-01 	4.562033e+38 	
1.200264e+06 	7.010571e+04 	1.258109e+09 	5.480540e-01 	4.562025e+38 	
1.200274e+06 	6.937161e+04 	1.254981e+09 	5.538435e-01 	4.562018e+38 	
1.200284e+06 	6.864519e+04 	1.251861e+09 	5.596943e-01 	4.562010e+38 	
1.200293e+06 	6.792637e+04 	1.248750e+09 	5.656069e-01 	4.562003e+38 	
1.200303e+06 	6.721508e+04 	1.245648e+09 	5.715819e-01 	4.561995e+38 	
1.200313e+06 	6.651124e+04 	1.242554e+09 	5.776201e-01 	4.561988e+38 	
1.200322e+06 	6.581478e+04 	1.239468e+09 	5.837221e-01 	4.561981e+38 	
1.200332e+06 	6.512560e+04 	1.236392e+09 	5.898885e-01 	4.561973e+38 	
1.200341e+06 	6.444364e+04 	1.233323e+09 	5.961201e-01 	4.561966e+38 	
1.200351e+06 	6.376882e+04 	1.230263e+09 	6.024176e-01 	4.561958e+38 	
1.200360e+06 	6.310107e+04 	1.227212e+09 	6.087816e-01 	4.561951e+38 	
1.200370e+06 	6.244031e+04 	1.224169e+09 	6.152128e-01 	4.561944e+38 	
1.200379e+06 	6.178647e+04 	1.221134e+09 	6.217120e-01 	4.561936e+38 	
1.200389e+06 	6.113948e+04 	1.218108e+09 	6.282799e-01 	4.561929e+38 	
1.200398e+06 	6.049926e+04 	1.215090e+09 	6.349171e-01 	4.561921e+38 	
1.200408e+06 	5.986575e+04 	1.212080e+09 	6.416245e-01 	4.561914e+38 	
1.200417e+06 	5.923887e+04 	1.209079e+09 	6.484027e-01 	4.561906e+38 	
1.200427e+06 	5.861855e+04 	1.206085e+09 	6.552526e-01 	4.561899e+38 	
1.200436e+06 	5.800473e+04 	1.203101e+09 	6.621749e-01 	4.561891e+38 	
1.200446e+06 	5.739734e+04 	1.200124e+09 	6.691703e-01 	4.561884e+38 	
1.200455e+06 	5.679630e+04 	1.197156e+09 	6.762396e-01 	4.561877e+38 	
1.200464e+06 	5.620156e+04 	1.194195e+09 	6.833836e-01 	4.561869e+38 	
1.200474e+06 	5.561305e+04 	1.191243e+09 	6.906031e-01 	4.561862e+38 	
1.200483e+06 	5.503070e+04 	1.188299e+09 	6.978989e-01 	4.561854e+38 	
1.200493e+06 	5.445445e+04 	1.185363e+09 	7.052717e-01 	4.561847e+38 	
1.200502e+06 	5.388424e+04 	1.182436e+09 	7.127225e-01 	4.561839e+38 	
1.200511e+06 	5.331999e+04 	1.179516e+09 	7.202520e-01 	4.561832e+38 	
1.200521e+06 	5.276165e+04 	1.176605e+09 	7.278610e-01 	4.561825e+38 	
1.200530e+06 	5.220916e+04 	1.173701e+09 	7.355505e-01 	4.561817e+38 	
1.200539e+06 	5.166246e+04 	1.170805e+09 	7.433212e-01 	4.561810e+38 	
1.200549e+06 	5.112148e+04 	1.167918e+09 	7.511740e-01 	4.561802e+38 	
1.200558e+06 	5.058616e+04 	1.165038e+09 	7.591098e-01 	4.561795e+38 	
1.200567e+06 	5.005645e+04 	1.162167e+09 	7.671294e-01 	4.561787e+38 	
1.200576e+06 	4.953229e+04 	1.159303e+09 	7.752338e-01 	4.561780e+38 	
1.200586e+06 	4.901361e+04 	1.156447e+09 	7.834238e-01 	4.561772e+38 	
1.200595e+06 	4.850037e+04 	1.153599e+09 	7.917004e-01 	4.561765e+38 	
1.200604e+06 	4.799250e+04 	1.150759e+09 	8.000644e-01 	4.561757e+38 	
1.200614e+06 	4.748995e+04 	1.147927e+09 	8.085168e-01 	4.561750e+38 	
1.200623e+06 	4.699266e+04 	1.145103e+09 	8.170584e-01 	4.561742e+38 	
1.200632e+06 	4.650058e+04 	1.142286e+09 	8.256904e-01 	4.561735e+38 	
1.200641e+06 	4.601365e+04 	1.139477e+09 	8.344136e-01 	4.561728e+38 	
1.200650e+06 	4.553182e+04 	1.136676e+09 	8.432289e-01 	4.561720e+38 	
1.200660e+06 	4.505504e+04 	1.133883e+09 	8.521374e-01 	4.561713e+38 	
1.200669e+06 	4.458325e+04 	1.131097e+09 	8.611400e-01 	4.561705e+38 	
1.200678e+06 	4.411640e+04 	1.128319e+09 	8.702377e-01 	4.561698e+38 	
1.200687e+06 	4.365443e+04 	1.125549e+09 	8.794316e-01 	4.561690e+38 	
1.200696e+06 	4.319731e+04 	1.122786e+09 	8.887226e-01 	4.561683e+38 	
1.200705e+06 	4.274497e+04 	1.120032e+09 	8.981118e-01 	4.561675e+38 	
1.200715e+06 	4.229737e+04 	1.117284e+09 	9.076002e-01 	4.561668e+38 	
1.200724e+06 	4.185446e+04 	1.114545e+09 	9.171888e-01 	4.561660e+38 	
1.200733e+06 	4.141618e+04 	1.111812e+09 	9.268788e-01 	4.561653e+38 	
1.200742e+06 	4.098249e+04 	1.109088e+09 	9.366712e-01 	4.561645e+38 	
1.200751e+06 	4.055335e+04 	1.106371e+09 	9.465670e-01 	4.561638e+38 	
1.200760e+06 	4.012869e+04 	1.103661e+09 	9.565674e-01 	4.561630e+38 	
1.200769e+06 	3.970849e+04 	1.100959e+09 	9.666735e-01 	4.561623e+38 	
1.200778e+06 	3.929268e+04 	1.098265e+09 	9.768864e-01 	4.561615e+38 	
1.200787e+06 	3.888123e+04 	1.095578e+09 	9.872072e-01 	4.561608e+38 	
1.200796e+06 	3.847409e+04 	1.092898e+09 	9.976370e-01 	4.561600e+38 	
1.200805e+06 	3.807121e+04 	1.090226e+09 	1.008177e+00 	4.561593e+38 	
1.200815e+06 	3.767255e+04 	1.087561e+09 	1.018828e+00 	4.561585e+38 	
1.200824e+06 	3.727806e+04 	1.084903e+09 	1.029592e+00 	4.561577e+38 	
1.200833e+06 	3.688771e+04 	1.082253e+09 	1.040470e+00 	4.561570e+38 	
1.200842e+06 	3.650144e+04 	1.079610e+09 	1.051463e+00 	4.561562e+38 	
1.200851e+06 	3.611922e+04 	1.076975e+09 	1.062572e+00 	4.561555e+38 	
1.200860e+06 	3.574100e+04 	1.074347e+09 	1.073798e+00 	4.561547e+38 	
1.200869e+06 	3.536674e+04 	1.071726e+09 	1.085143e+00 	4.561540e+38 	
1.200878e+06 	3.499640e+04 	1.069112e+09 	1.096607e+00 	4.561532e+38 	
1.200886e+06 	3.462994e+04 	1.066506e+09 	1.108193e+00 	4.561525e+38 	
1.200895e+06 	3.426731e+04 	1.063907e+09 	1.119901e+00 	4.561517e+38 	
1.200904e+06 	3.390848e+04 	1.061315e+09 	1.131733e+00 	4.561510e+38 	
1.200913e+06 	3.355341e+04 	1.058730e+09 	1.143690e+00 	4.561502e+38 	
1.200922e+06 	3.320206e+04 	1.056153e+09 	1.155774e+00 	4.561494e+38 	
1.200931e+06 	3.285438e+04 	1.053582e+09 	1.167985e+00 	4.561487e+38 	
1.200940e+06 	3.251035e+04 	1.051019e+09 	1.180325e+00 	4.561479e+38 	
1.200949e+06 	3.216992e+04 	1.048463e+09 	1.192795e+00 	4.561472e+38 	
1.200958e+06 	3.183306e+04 	1.045914e+09 	1.205397e+00 	4.561464e+38 	
1.200967e+06 	3.149972e+04 	1.043372e+09 	1.218133e+00 	4.561456e+38 	
1.200976e+06 	3.116987e+04 	1.040837e+09 	1.231003e+00 	4.561449e+38 	
1.200985e+06 	3.084348e+04 	1.038309e+09 	1.244009e+00 	4.561441e+38 	
1.200993e+06 	3.052050e+04 	1.035788e+09 	1.257152e+00 	4.561434e+38 	
1.201002e+06 	3.020091e+04 	1.033274e+09 	1.270435e+00 	4.561426e+38 	
1.201011e+06 	2.988466e+04 	1.030767e+09 	1.283857e+00 	4.561418e+38 	
1.201020e+06 	2.957173e+04 	1.028267e+09 	1.297422e+00 	4.561411e+38 	
1.201029e+06 	2.926207e+04 	1.025774e+09 	1.311129e+00 	4.561403e+38 	
1.201038e+06 	2.895565e+04 	1.023287e+09 	1.324982e+00 	4.561396e+38 	
1.201046e+06 	2.865244e+04 	1.020808e+09 	1.338981e+00 	4.561388e+38 	
1.201055e+06 	2.835241e+04 	1.018336e+09 	1.353128e+00 	4.561380e+38 	
1.201064e+06 	2.805552e+04 	1.015870e+09 	1.367425e+00 	4.561373e+38 	
1.201073e+06 	2.776174e+04 	1.013412e+09 	1.381872e+00 	4.561365e+38 	
1.201082e+06 	2.747103e+04 	1.010960e+09 	1.396472e+00 	4.561357e+38 	
1.201090e+06 	2.718337e+04 	1.008515e+09 	1.411227e+00 	4.561350e+38 	
1.201099e+06 	2.689872e+04 	1.006077e+09 	1.426137e+00 	4.561342e+38 	
1.201108e+06 	2.661705e+04 	1.003645e+09 	1.441205e+00 	4.561334e+38 	
1.201117e+06 	2.633833e+04 	1.001221e+09 	1.456432e+00 	4.561327e+38 	
1.201125e+06 	2.606253e+04 	9.988027e+08 	1.471820e+00 	4.561319e+38 	
1.201134e+06 	2.578962e+04 	9.963916e+08 	1.487371e+00 	4.561311e+38 	
1.201143e+06 	2.551957e+04 	9.939871e+08 	1.503086e+00 	4.561304e+38 	
1.201152e+06 	2.525234e+04 	9.915893e+08 	1.518967e+00 	4.561296e+38 	
1.201160e+06 	2.498791e+04 	9.891982e+08 	1.535016e+00 	4.561288e+38 	
1.201169e+06 	2.472625e+04 	9.868136e+08 	1.551234e+00 	4.561281e+38 	
1.201178e+06 	2.446733e+04 	9.844358e+08 	1.567624e+00 	4.561273e+38 	
1.201186e+06 	2.421113e+04 	9.820646e+08 	1.584187e+00 	4.561265e+38 	
1.201195e+06 	2.395760e+04 	9.797000e+08 	1.600925e+00 	4.561257e+38 	
1.201204e+06 	2.370673e+04 	9.773420e+08 	1.617840e+00 	4.561250e+38 	
1.201213e+06 	2.345849e+04 	9.749906e+08 	1.634934e+00 	4.561242e+38 	
1.201221e+06 	2.321284e+04 	9.726457e+08 	1.652208e+00 	4.561234e+38 	
1.201230e+06 	2.296977e+04 	9.703073e+08 	1.669665e+00 	4.561227e+38 	
1.201239e+06 	2.272924e+04 	9.679755e+08 	1.687306e+00 	4.561219e+38 	
1.201247e+06 	2.249123e+04 	9.656500e+08 	1.705134e+00 	4.561211e+38 	
1.201256e+06 	2.225572e+04 	9.633311e+08 	1.723150e+00 	4.561203e+38 	
1.201264e+06 	2.202267e+04 	9.610186e+08 	1.741356e+00 	4.561196e+38 	
1.201273e+06 	2.179206e+04 	9.587127e+08 	1.759755e+00 	4.561188e+38 	
1.201282e+06 	2.156387e+04 	9.564132e+08 	1.778349e+00 	4.561180e+38 	
1.201290e+06 	2.133806e+04 	9.541201e+08 	1.797138e+00 	4.561172e+38 	
1.201299e+06 	2.111462e+04 	9.518334e+08 	1.816127e+00 	4.561164e+38 	
1.201307e+06 	2.089352e+04 	9.495531e+08 	1.835316e+00 	4.561157e+38 	
1.201316e+06 	2.067474e+04 	9.472791e+08 	1.854707e+00 	4.561149e+38 	
1.201325e+06 	2.045824e+04 	9.450114e+08 	1.874304e+00 	4.561141e+38 	
1.201333e+06 	2.024401e+04 	9.427501e+08 	1.894108e+00 	4.561133e+38 	
1.201342e+06 	2.003203e+04 	9.404950e+08 	1.914121e+00 	4.561125e+38 	
1.201350e+06 	1.982227e+04 	9.382463e+08 	1.934345e+00 	4.561117e+38 	
1.201359e+06 	1.961470e+04 	9.360039e+08 	1.954783e+00 	4.561110e+38 	
1.201367e+06 	1.940930e+04 	9.337678e+08 	1.975438e+00 	4.561102e+38 	
1.201376e+06 	1.920606e+04 	9.315379e+08 	1.996310e+00 	4.561094e+38 	
1.201385e+06 	1.900494e+04 	9.293142e+08 	2.017403e+00 	4.561086e+38 	
1.201393e+06 	1.880594e+04 	9.270968e+08 	2.038719e+00 	4.561078e+38 	
1.201402e+06 	1.860901e+04 	9.248855e+08 	2.060260e+00 	4.561070e+38 	
1.201410e+06 	1.841415e+04 	9.226803e+08 	2.082029e+00 	4.561062e+38 	
1.201419e+06 	1.822132e+04 	9.204814e+08 	2.104028e+00 	4.561055e+38 	
1.201427e+06 	1.803052e+04 	9.182886e+08 	2.126259e+00 	4.561047e+38 	
1.201436e+06 	1.784172e+04 	9.161019e+08 	2.148725e+00 	4.561039e+38 	
1.201444e+06 	1.765489e+04 	9.139215e+08 	2.171429e+00 	4.561031e+38 	
1.201453e+06 	1.747001e+04 	9.117471e+08 	2.194372e+00 	4.561023e+38 	
1.201461e+06 	1.728708e+04 	9.095788e+08 	2.217558e+00 	4.561015e+38 	
1.201470e+06 	1.710606e+04 	9.074165e+08 	2.240989e+00 	4.561007e+38 	
1.201478e+06 	1.692693e+04 	9.052603e+08 	2.264668e+00 	4.560999e+38 	
1.201486e+06 	1.674968e+04 	9.031101e+08 	2.288597e+00 	4.560991e+38 	
1.201495e+06 	1.657429e+04 	9.009658e+08 	2.312778e+00 	4.560983e+38 	
1.201503e+06 	1.640073e+04 	8.988276e+08 	2.337215e+00 	4.560975e+38 	
1.201512e+06 	1.622899e+04 	8.966954e+08 	2.361911e+00 	4.560967e+38 	
1.201520e+06 	1.605905e+04 	8.945693e+08 	2.386867e+00 	4.560959e+38 	
1.201529e+06 	1.589089e+04 	8.924491e+08 	2.412087e+00 	4.560951e+38 	
1.201537e+06 	1.572449e+04 	8.903349e+08 	2.437574e+00 	4.560943e+38 	
1.201546e+06 	1.555983e+04 	8.882265e+08 	2.463330e+00 	4.560935e+38 	
1.201554e+06 	1.539690e+04 	8.861241e+08 	2.489358e+00 	4.560927e+38 	
1.201562e+06 	1.523567e+04 	8.840275e+08 	2.515661e+00 	4.560919e+38 	
1.201571e+06 	1.507613e+04 	8.819368e+08 	2.542242e+00 	4.560911e+38 	
1.201579e+06 	1.491826e+04 	8.798520e+08 	2.569104e+00 	4.560903e+38 	
1.201588e+06 	1.476205e+04 	8.777730e+08 	2.596250e+00 	4.560895e+38 	
1.201596e+06 	1.460747e+04 	8.756999e+08 	2.623683e+00 	4.560887e+38 	
1.201604e+06 	1.445451e+04 	8.736326e+08 	2.651405e+00 	4.560879e+38 	
1.201613e+06 	1.430315e+04 	8.715711e+08 	2.679421e+00 	4.560871e+38 	
1.201621e+06 	1.415337e+04 	8.695155e+08 	2.707732e+00 	4.560863e+38 	
1.201629e+06 	1.400517e+04 	8.674656e+08 	2.736343e+00 	4.560855e+38 	
1.201638e+06 	1.385851e+04 	8.654214e+08 	2.765256e+00 	4.560847e+38 	
1.201646e+06 	1.371339e+04 	8.633829e+08 	2.794475e+00 	4.560838e+38 	
1.201655e+06 	1.356979e+04 	8.613502e+08 	2.824002e+00 	4.560830e+38 	
1.201663e+06 	1.342770e+04 	8.593232e+08 	2.853842e+00 	4.560822e+38 	
1.201671e+06 	1.328709e+04 	8.573018e+08 	2.883997e+00 	4.560814e+38 	
1.201680e+06 	1.314796e+04 	8.552862e+08 	2.914470e+00 	4.560806e+38 	
1.201688e+06 	1.301028e+04 	8.532764e+08 	2.945265e+00 	4.560798e+38 	
1.201696e+06 	1.287404e+04 	8.512721e+08 	2.976386e+00 	4.560790e+38 	
1.201705e+06 	1.273923e+04 	8.492735e+08 	3.007836e+00 	4.560781e+38 	
1.201713e+06 	1.260583e+04 	8.472805e+08 	3.039618e+00 	4.560773e+38 	
1.201721e+06 	1.247383e+04 	8.452932e+08 	3.071736e+00 	4.560765e+38 	
1.201729e+06 	1.234321e+04 	8.433113e+08 	3.104193e+00 	4.560757e+38 	
1.201738e+06 	1.221396e+04 	8.413351e+08 	3.136994e+00 	4.560749e+38 	
1.201746e+06 	1.208606e+04 	8.393644e+08 	3.170140e+00 	4.560740e+38 	
1.201754e+06 	1.195951e+04 	8.373993e+08 	3.203638e+00 	4.560732e+38 	
1.201763e+06 	1.183427e+04 	8.354398e+08 	3.237489e+00 	4.560724e+38 	
1.201771e+06 	1.171035e+04 	8.334858e+08 	3.271698e+00 	4.560716e+38 	
1.201779e+06 	1.158773e+04 	8.315373e+08 	3.306268e+00 	4.560707e+38 	
1.201787e+06 	1.146639e+04 	8.295943e+08 	3.341204e+00 	4.560699e+38 	
1.201796e+06 	1.134632e+04 	8.276568e+08 	3.376509e+00 	4.560691e+38 	
1.201804e+06 	1.122750e+04 	8.257247e+08 	3.412187e+00 	4.560682e+38 	
1.201812e+06 	1.110994e+04 	8.237980e+08 	3.448242e+00 	4.560674e+38 	
1.201820e+06 	1.099360e+04 	8.218768e+08 	3.484678e+00 	4.560666e+38 	
1.201829e+06 	1.087848e+04 	8.199610e+08 	3.521499e+00 	4.560657e+38 	
1.201837e+06 	1.076457e+04 	8.180507e+08 	3.558709e+00 	4.560649e+38 	
1.201845e+06 	1.065185e+04 	8.161458e+08 	3.596312e+00 	4.560641e+38 	
1.201853e+06 	1.054031e+04 	8.142462e+08 	3.634313e+00 	4.560632e+38 	
1.201862e+06 	1.042993e+04 	8.123521e+08 	3.672715e+00 	4.560624e+38 	
1.201870e+06 	1.032072e+04 	8.104632e+08 	3.711523e+00 	4.560615e+38 	
1.201878e+06 	1.021264e+04 	8.085797e+08 	3.750741e+00 	4.560607e+38 	
1.201886e+06 	1.010570e+04 	8.067015e+08 	3.790374e+00 	4.560599e+38 	
1.201895e+06 	9.999882e+03 	8.048286e+08 	3.830425e+00 	4.560590e+38 	
1.201903e+06 	9.895169e+03 	8.029610e+08 	3.870900e+00 	4.560582e+38 	
1.201911e+06 	9.791552e+03 	8.010987e+08 	3.911802e+00 	4.560573e+38 	
1.201919e+06 	9.689021e+03 	7.992417e+08 	3.953137e+00 	4.560565e+38 	
1.201927e+06 	9.587563e+03 	7.973900e+08 	3.994908e+00 	4.560556e+38 	
1.201936e+06 	9.487167e+03 	7.955435e+08 	4.037121e+00 	4.560548e+38 	
1.201944e+06 	9.387823e+03 	7.937023e+08 	4.079780e+00 	4.560539e+38 	
1.201952e+06 	9.289519e+03 	7.918663e+08 	4.122890e+00 	4.560531e+38 	
1.201960e+06 	9.192244e+03 	7.900354e+08 	4.166455e+00 	4.560522e+38 	
1.201968e+06 	9.095988e+03 	7.882097e+08 	4.210480e+00 	4.560514e+38 	
1.201976e+06 	9.000740e+03 	7.863892e+08 	4.254971e+00 	4.560505e+38 	
1.201985e+06 	8.906489e+03 	7.845739e+08 	4.299932e+00 	4.560497e+38 	
1.201993e+06 	8.813225e+03 	7.827637e+08 	4.345368e+00 	4.560488e+38 	
1.202001e+06 	8.720938e+03 	7.809587e+08 	4.391285e+00 	4.560479e+38 	
1.202009e+06 	8.629617e+03 	7.791588e+08 	4.437686e+00 	4.560471e+38 	
1.202017e+06 	8.539253e+03 	7.773641e+08 	4.484578e+00 	4.560462e+38 	
1.202025e+06 	8.449834e+03 	7.755744e+08 	4.531965e+00 	4.560454e+38 	
1.202034e+06 	8.361352e+03 	7.737898e+08 	4.579853e+00 	4.560445e+38 	
1.202042e+06 	8.273797e+03 	7.720103e+08 	4.628248e+00 	4.560436e+38 	
1.202050e+06 	8.187158e+03 	7.702357e+08 	4.677153e+00 	4.560428e+38 	
1.202058e+06 	8.101427e+03 	7.684663e+08 	4.726575e+00 	4.560419e+38 	
1.202066e+06 	8.016593e+03 	7.667018e+08 	4.776520e+00 	4.560410e+38 	
1.202074e+06 	7.932648e+03 	7.649424e+08 	4.826992e+00 	4.560401e+38 	
1.202082e+06 	7.849582e+03 	7.631881e+08 	4.877998e+00 	4.560393e+38 	
1.202091e+06 	7.767385e+03 	7.614388e+08 	4.929543e+00 	4.560384e+38 	
1.202099e+06 	7.686050e+03 	7.596944e+08 	4.981632e+00 	4.560375e+38 	
1.202107e+06 	7.605566e+03 	7.579550e+08 	5.034272e+00 	4.560366e+38 	
1.202115e+06 	7.525924e+03 	7.562205e+08 	5.087469e+00 	4.560358e+38 	
1.202123e+06 	7.447117e+03 	7.544909e+08 	5.141227e+00 	4.560349e+38 	
1.202131e+06 	7.369135e+03 	7.527663e+08 	5.195553e+00 	4.560340e+38 	
1.202139e+06 	7.291970e+03 	7.510466e+08 	5.250454e+00 	4.560331e+38 	
1.202147e+06 	7.215612e+03 	7.493318e+08 	5.305934e+00 	4.560322e+38 	
1.202155e+06 	7.140054e+03 	7.476219e+08 	5.362001e+00 	4.560313e+38 	
1.202164e+06 	7.065288e+03 	7.459170e+08 	5.418661e+00 	4.560305e+38 	
1.202172e+06 	6.991304e+03 	7.442168e+08 	5.475919e+00 	4.560296e+38 	
1.202180e+06 	6.918095e+03 	7.425216e+08 	5.533782e+00 	4.560287e+38 	
1.202188e+06 	6.845652e+03 	7.408311e+08 	5.592257e+00 	4.560278e+38 	
1.202196e+06 	6.773969e+03 	7.391455e+08 	5.651349e+00 	4.560269e+38 	
1.202204e+06 	6.703035e+03 	7.374647e+08 	5.711066e+00 	4.560260e+38 	
1.202212e+06 	6.632845e+03 	7.357886e+08 	5.771414e+00 	4.560251e+38 	
1.202220e+06 	6.563389e+03 	7.341174e+08 	5.832400e+00 	4.560242e+38 	
1.202228e+06 	6.494661e+03 	7.324510e+08 	5.894030e+00 	4.560233e+38 	
1.202236e+06 	6.426653e+03 	7.307894e+08 	5.956312e+00 	4.560224e+38 	
1.202244e+06 	6.359356e+03 	7.291325e+08 	6.019252e+00 	4.560215e+38 	
1.202252e+06 	6.292765e+03 	7.274803e+08 	6.082856e+00 	4.560206e+38 	
1.202261e+06 	6.226870e+03 	7.258329e+08 	6.147133e+00 	4.560197e+38 	
1.202269e+06 	6.161666e+03 	7.241902e+08 	6.212090e+00 	4.560188e+38 	
1.202277e+06 	6.097145e+03 	7.225522e+08 	6.277732e+00 	4.560178e+38 	
1.202285e+06 	6.033299e+03 	7.209189e+08 	6.344068e+00 	4.560169e+38 	
1.202293e+06 	5.970121e+03 	7.192902e+08 	6.411106e+00 	4.560160e+38 	
1.202301e+06 	5.907606e+03 	7.176662e+08 	6.478851e+00 	4.560151e+38 	
1.202309e+06 	5.845744e+03 	7.160469e+08 	6.547313e+00 	4.560142e+38 	
1.202317e+06 	5.784531e+03 	7.144323e+08 	6.616498e+00 	4.560133e+38 	
1.202325e+06 	5.723959e+03 	7.128224e+08 	6.686414e+00 	4.560123e+38 	
1.202333e+06 	5.664021e+03 	7.112170e+08 	6.757069e+00 	4.560114e+38 	
1.202341e+06 	5.604710e+03 	7.096162e+08 	6.828470e+00 	4.560105e+38 	
1.202349e+06 	5.546021e+03 	7.080200e+08 	6.900626e+00 	4.560096e+38 	
1.202357e+06 	5.487946e+03 	7.064284e+08 	6.973545e+00 	4.560086e+38 	
1.202365e+06 	5.430479e+03 	7.048414e+08 	7.047234e+00 	4.560077e+38 	
1.202373e+06 	5.373614e+03 	7.032589e+08 	7.121702e+00 	4.560068e+38 	
1.202381e+06 	5.317345e+03 	7.016810e+08 	7.196957e+00 	4.560059e+38 	
1.202389e+06 	5.261664e+03 	7.001077e+08 	7.273007e+00 	4.560049e+38 	
1.202397e+06 	5.206567e+03 	6.985389e+08 	7.349860e+00 	4.560040e+38 	
1.202405e+06 	5.152047e+03 	6.969746e+08 	7.427526e+00 	4.560030e+38 	
1.202413e+06 	5.098098e+03 	6.954148e+08 	7.506012e+00 	4.560021e+38 	
1.202421e+06 	5.044713e+03 	6.938595e+08 	7.585328e+00 	4.560012e+38 	
1.202429e+06 	4.991888e+03 	6.923087e+08 	7.665482e+00 	4.560002e+38 	
1.202438e+06 	4.939615e+03 	6.907623e+08 	7.746483e+00 	4.559993e+38 	
