r (cm)      	rho (g/cm3) 	T (K)       	u (cm/s)    	L* (erg/s)  			 Edot= 8.098544e+38
1.200000e+06 	9.567872e+04 	1.338958e+09 	3.580784e-01 	4.454870e+38 	
1.200010e+06 	9.467229e+04 	1.335569e+09 	3.618783e-01 	4.454864e+38 	
1.200020e+06 	9.367644e+04 	1.332189e+09 	3.657186e-01 	4.454857e+38 	
1.200029e+06 	9.269106e+04 	1.328818e+09 	3.695996e-01 	4.454851e+38 	
1.200039e+06 	9.171605e+04 	1.325457e+09 	3.735219e-01 	4.454845e+38 	
1.200049e+06 	9.075130e+04 	1.322105e+09 	3.774857e-01 	4.454838e+38 	
1.200059e+06 	8.979669e+04 	1.318762e+09 	3.814917e-01 	4.454832e+38 	
1.200068e+06 	8.885213e+04 	1.315429e+09 	3.855402e-01 	4.454826e+38 	
1.200078e+06 	8.791750e+04 	1.312104e+09 	3.896316e-01 	4.454819e+38 	
1.200088e+06 	8.699270e+04 	1.308789e+09 	3.937665e-01 	4.454813e+38 	
1.200097e+06 	8.607763e+04 	1.305483e+09 	3.979452e-01 	4.454807e+38 	
1.200107e+06 	8.517219e+04 	1.302186e+09 	4.021684e-01 	4.454800e+38 	
1.200117e+06 	8.427627e+04 	1.298898e+09 	4.064363e-01 	4.454794e+38 	
1.200126e+06 	8.338977e+04 	1.295619e+09 	4.107495e-01 	4.454788e+38 	
1.200136e+06 	8.251260e+04 	1.292349e+09 	4.151086e-01 	4.454781e+38 	
1.200146e+06 	8.164466e+04 	1.289089e+09 	4.195139e-01 	4.454775e+38 	
1.200155e+06 	8.078584e+04 	1.285837e+09 	4.239659e-01 	4.454769e+38 	
1.200165e+06 	7.993606e+04 	1.282594e+09 	4.284652e-01 	4.454762e+38 	
1.200174e+06 	7.909522e+04 	1.279360e+09 	4.330123e-01 	4.454756e+38 	
1.200184e+06 	7.826322e+04 	1.276135e+09 	4.376077e-01 	4.454749e+38 	
1.200194e+06 	7.743998e+04 	1.272919e+09 	4.422518e-01 	4.454743e+38 	
1.200203e+06 	7.662539e+04 	1.269712e+09 	4.469452e-01 	4.454737e+38 	
1.200213e+06 	7.581938e+04 	1.266513e+09 	4.516884e-01 	4.454730e+38 	
1.200222e+06 	7.502184e+04 	1.263324e+09 	4.564820e-01 	4.454724e+38 	
1.200232e+06 	7.423269e+04 	1.260143e+09 	4.613265e-01 	4.454718e+38 	
1.200241e+06 	7.345184e+04 	1.256971e+09 	4.662224e-01 	4.454711e+38 	
1.200251e+06 	7.267921e+04 	1.253808e+09 	4.711702e-01 	4.454705e+38 	
1.200260e+06 	7.191470e+04 	1.250654e+09 	4.761706e-01 	4.454699e+38 	
1.200270e+06 	7.115824e+04 	1.247508e+09 	4.812241e-01 	4.454692e+38 	
1.200279e+06 	7.040973e+04 	1.244371e+09 	4.863312e-01 	4.454686e+38 	
1.200289e+06 	6.966909e+04 	1.241242e+09 	4.914925e-01 	4.454680e+38 	
1.200298e+06 	6.893625e+04 	1.238122e+09 	4.967086e-01 	4.454673e+38 	
1.200307e+06 	6.821111e+04 	1.235011e+09 	5.019800e-01 	4.454667e+38 	
1.200317e+06 	6.749361e+04 	1.231909e+09 	5.073075e-01 	4.454661e+38 	
1.200326e+06 	6.678365e+04 	1.228815e+09 	5.126914e-01 	4.454655e+38 	
1.200336e+06 	6.608115e+04 	1.225729e+09 	5.181326e-01 	4.454648e+38 	
1.200345e+06 	6.538605e+04 	1.222652e+09 	5.236314e-01 	4.454642e+38 	
1.200354e+06 	6.469826e+04 	1.219584e+09 	5.291887e-01 	4.454636e+38 	
1.200364e+06 	6.401771e+04 	1.216524e+09 	5.348049e-01 	4.454629e+38 	
1.200373e+06 	6.334431e+04 	1.213472e+09 	5.404808e-01 	4.454623e+38 	
1.200382e+06 	6.267799e+04 	1.210429e+09 	5.462169e-01 	4.454617e+38 	
1.200392e+06 	6.201869e+04 	1.207394e+09 	5.520139e-01 	4.454610e+38 	
1.200401e+06 	6.136632e+04 	1.204368e+09 	5.578724e-01 	4.454604e+38 	
1.200410e+06 	6.072081e+04 	1.201350e+09 	5.637931e-01 	4.454598e+38 	
1.200419e+06 	6.008209e+04 	1.198341e+09 	5.697767e-01 	4.454591e+38 	
1.200429e+06 	5.945009e+04 	1.195339e+09 	5.758238e-01 	4.454585e+38 	
1.200438e+06 	5.882474e+04 	1.192346e+09 	5.819350e-01 	4.454579e+38 	
1.200447e+06 	5.820597e+04 	1.189361e+09 	5.881112e-01 	4.454572e+38 	
1.200456e+06 	5.759371e+04 	1.186385e+09 	5.943529e-01 	4.454566e+38 	
1.200466e+06 	5.698788e+04 	1.183417e+09 	6.006609e-01 	4.454560e+38 	
1.200475e+06 	5.638843e+04 	1.180457e+09 	6.070358e-01 	4.454553e+38 	
1.200484e+06 	5.579529e+04 	1.177505e+09 	6.134784e-01 	4.454547e+38 	
1.200493e+06 	5.520838e+04 	1.174561e+09 	6.199894e-01 	4.454541e+38 	
1.200502e+06 	5.462765e+04 	1.171625e+09 	6.265695e-01 	4.454534e+38 	
1.200512e+06 	5.405302e+04 	1.168698e+09 	6.332194e-01 	4.454528e+38 	
1.200521e+06 	5.348444e+04 	1.165779e+09 	6.399399e-01 	4.454522e+38 	
1.200530e+06 	5.292184e+04 	1.162867e+09 	6.467318e-01 	4.454515e+38 	
1.200539e+06 	5.236516e+04 	1.159964e+09 	6.535958e-01 	4.454509e+38 	
1.200548e+06 	5.181434e+04 	1.157069e+09 	6.605326e-01 	4.454503e+38 	
1.200557e+06 	5.126931e+04 	1.154181e+09 	6.675431e-01 	4.454496e+38 	
1.200566e+06 	5.073001e+04 	1.151302e+09 	6.746280e-01 	4.454490e+38 	
1.200576e+06 	5.019638e+04 	1.148431e+09 	6.817881e-01 	4.454484e+38 	
1.200585e+06 	4.966837e+04 	1.145568e+09 	6.890242e-01 	4.454477e+38 	
1.200594e+06 	4.914591e+04 	1.142712e+09 	6.963371e-01 	4.454471e+38 	
1.200603e+06 	4.862895e+04 	1.139865e+09 	7.037277e-01 	4.454464e+38 	
1.200612e+06 	4.811743e+04 	1.137025e+09 	7.111967e-01 	4.454458e+38 	
1.200621e+06 	4.761128e+04 	1.134193e+09 	7.187450e-01 	4.454452e+38 	
1.200630e+06 	4.711047e+04 	1.131369e+09 	7.263734e-01 	4.454445e+38 	
1.200639e+06 	4.661491e+04 	1.128553e+09 	7.340828e-01 	4.454439e+38 	
1.200648e+06 	4.612458e+04 	1.125745e+09 	7.418740e-01 	4.454433e+38 	
1.200657e+06 	4.563939e+04 	1.122944e+09 	7.497480e-01 	4.454426e+38 	
1.200666e+06 	4.515932e+04 	1.120152e+09 	7.577055e-01 	4.454420e+38 	
1.200675e+06 	4.468429e+04 	1.117367e+09 	7.657475e-01 	4.454414e+38 	
1.200684e+06 	4.421426e+04 	1.114589e+09 	7.738749e-01 	4.454407e+38 	
1.200693e+06 	4.374917e+04 	1.111819e+09 	7.820885e-01 	4.454401e+38 	
1.200702e+06 	4.328898e+04 	1.109057e+09 	7.903893e-01 	4.454395e+38 	
1.200711e+06 	4.283362e+04 	1.106303e+09 	7.987783e-01 	4.454388e+38 	
1.200720e+06 	4.238306e+04 	1.103556e+09 	8.072563e-01 	4.454382e+38 	
1.200729e+06 	4.193724e+04 	1.100817e+09 	8.158243e-01 	4.454376e+38 	
1.200738e+06 	4.149610e+04 	1.098086e+09 	8.244833e-01 	4.454369e+38 	
1.200746e+06 	4.105961e+04 	1.095362e+09 	8.332342e-01 	4.454363e+38 	
1.200755e+06 	4.062771e+04 	1.092646e+09 	8.420779e-01 	4.454356e+38 	
1.200764e+06 	4.020035e+04 	1.089937e+09 	8.510156e-01 	4.454350e+38 	
1.200773e+06 	3.977748e+04 	1.087235e+09 	8.600481e-01 	4.454344e+38 	
1.200782e+06 	3.935906e+04 	1.084541e+09 	8.691765e-01 	4.454337e+38 	
1.200791e+06 	3.894505e+04 	1.081855e+09 	8.784019e-01 	4.454331e+38 	
1.200800e+06 	3.853539e+04 	1.079176e+09 	8.877251e-01 	4.454325e+38 	
1.200808e+06 	3.813004e+04 	1.076504e+09 	8.971473e-01 	4.454318e+38 	
1.200817e+06 	3.772895e+04 	1.073840e+09 	9.066696e-01 	4.454312e+38 	
1.200826e+06 	3.733208e+04 	1.071184e+09 	9.162929e-01 	4.454306e+38 	
1.200835e+06 	3.693939e+04 	1.068534e+09 	9.260184e-01 	4.454299e+38 	
1.200844e+06 	3.655083e+04 	1.065892e+09 	9.358471e-01 	4.454293e+38 	
1.200853e+06 	3.616635e+04 	1.063258e+09 	9.457802e-01 	4.454286e+38 	
1.200861e+06 	3.578592e+04 	1.060630e+09 	9.558187e-01 	4.454280e+38 	
1.200870e+06 	3.540949e+04 	1.058010e+09 	9.659638e-01 	4.454274e+38 	
1.200879e+06 	3.503702e+04 	1.055397e+09 	9.762166e-01 	4.454267e+38 	
1.200888e+06 	3.466847e+04 	1.052792e+09 	9.865782e-01 	4.454261e+38 	
1.200896e+06 	3.430380e+04 	1.050194e+09 	9.970498e-01 	4.454254e+38 	
1.200905e+06 	3.394296e+04 	1.047602e+09 	1.007633e+00 	4.454248e+38 	
1.200914e+06 	3.358591e+04 	1.045019e+09 	1.018328e+00 	4.454242e+38 	
1.200923e+06 	3.323263e+04 	1.042442e+09 	1.029136e+00 	4.454235e+38 	
1.200931e+06 	3.288305e+04 	1.039872e+09 	1.040060e+00 	4.454229e+38 	
1.200940e+06 	3.253716e+04 	1.037310e+09 	1.051099e+00 	4.454222e+38 	
1.200949e+06 	3.219490e+04 	1.034754e+09 	1.062256e+00 	4.454216e+38 	
1.200957e+06 	3.185625e+04 	1.032206e+09 	1.073531e+00 	4.454210e+38 	
1.200966e+06 	3.152115e+04 	1.029665e+09 	1.084925e+00 	4.454203e+38 	
1.200975e+06 	3.118959e+04 	1.027131e+09 	1.096441e+00 	4.454197e+38 	
1.200983e+06 	3.086151e+04 	1.024604e+09 	1.108079e+00 	4.454190e+38 	
1.200992e+06 	3.053688e+04 	1.022084e+09 	1.119840e+00 	4.454184e+38 	
1.201001e+06 	3.021566e+04 	1.019571e+09 	1.131727e+00 	4.454177e+38 	
1.201009e+06 	2.989782e+04 	1.017065e+09 	1.143739e+00 	4.454171e+38 	
1.201018e+06 	2.958333e+04 	1.014566e+09 	1.155879e+00 	4.454165e+38 	
1.201026e+06 	2.927215e+04 	1.012074e+09 	1.168148e+00 	4.454158e+38 	
1.201035e+06 	2.896424e+04 	1.009588e+09 	1.180547e+00 	4.454152e+38 	
1.201044e+06 	2.865956e+04 	1.007110e+09 	1.193078e+00 	4.454145e+38 	
1.201052e+06 	2.835809e+04 	1.004639e+09 	1.205742e+00 	4.454139e+38 	
1.201061e+06 	2.805980e+04 	1.002174e+09 	1.218540e+00 	4.454132e+38 	
1.201069e+06 	2.776464e+04 	9.997166e+08 	1.231474e+00 	4.454126e+38 	
1.201078e+06 	2.747259e+04 	9.972658e+08 	1.244545e+00 	4.454119e+38 	
1.201087e+06 	2.718360e+04 	9.948218e+08 	1.257756e+00 	4.454113e+38 	
1.201095e+06 	2.689766e+04 	9.923846e+08 	1.271106e+00 	4.454107e+38 	
1.201104e+06 	2.661473e+04 	9.899542e+08 	1.284598e+00 	4.454100e+38 	
1.201112e+06 	2.633477e+04 	9.875305e+08 	1.298233e+00 	4.454094e+38 	
1.201121e+06 	2.605775e+04 	9.851136e+08 	1.312013e+00 	4.454087e+38 	
1.201129e+06 	2.578366e+04 	9.827034e+08 	1.325940e+00 	4.454081e+38 	
1.201138e+06 	2.551244e+04 	9.802999e+08 	1.340014e+00 	4.454074e+38 	
1.201146e+06 	2.524408e+04 	9.779032e+08 	1.354238e+00 	4.454068e+38 	
1.201155e+06 	2.497854e+04 	9.755131e+08 	1.368612e+00 	4.454061e+38 	
1.201163e+06 	2.471579e+04 	9.731297e+08 	1.383140e+00 	4.454055e+38 	
1.201172e+06 	2.445580e+04 	9.707530e+08 	1.397821e+00 	4.454048e+38 	
1.201180e+06 	2.419856e+04 	9.683828e+08 	1.412658e+00 	4.454042e+38 	
1.201189e+06 	2.394401e+04 	9.660192e+08 	1.427653e+00 	4.454035e+38 	
1.201197e+06 	2.369215e+04 	9.636622e+08 	1.442807e+00 	4.454029e+38 	
1.201206e+06 	2.344293e+04 	9.613117e+08 	1.458122e+00 	4.454022e+38 	
1.201214e+06 	2.319634e+04 	9.589678e+08 	1.473600e+00 	4.454016e+38 	
1.201222e+06 	2.295234e+04 	9.566305e+08 	1.489241e+00 	4.454009e+38 	
1.201231e+06 	2.271090e+04 	9.542998e+08 	1.505049e+00 	4.454003e+38 	
1.201239e+06 	2.247201e+04 	9.519755e+08 	1.521025e+00 	4.453996e+38 	
1.201248e+06 	2.223563e+04 	9.496577e+08 	1.537170e+00 	4.453990e+38 	
1.201256e+06 	2.200173e+04 	9.473464e+08 	1.553487e+00 	4.453983e+38 	
1.201264e+06 	2.177030e+04 	9.450415e+08 	1.569977e+00 	4.453977e+38 	
1.201273e+06 	2.154130e+04 	9.427430e+08 	1.586642e+00 	4.453970e+38 	
1.201281e+06 	2.131471e+04 	9.404509e+08 	1.603484e+00 	4.453964e+38 	
1.201290e+06 	2.109050e+04 	9.381653e+08 	1.620504e+00 	4.453957e+38 	
1.201298e+06 	2.086865e+04 	9.358860e+08 	1.637706e+00 	4.453950e+38 	
1.201306e+06 	2.064913e+04 	9.336131e+08 	1.655089e+00 	4.453944e+38 	
1.201315e+06 	2.043193e+04 	9.313466e+08 	1.672658e+00 	4.453937e+38 	
1.201323e+06 	2.021701e+04 	9.290864e+08 	1.690413e+00 	4.453931e+38 	
1.201331e+06 	2.000434e+04 	9.268325e+08 	1.708357e+00 	4.453924e+38 	
1.201340e+06 	1.979392e+04 	9.245848e+08 	1.726490e+00 	4.453918e+38 	
1.201348e+06 	1.958571e+04 	9.223435e+08 	1.744817e+00 	4.453911e+38 	
1.201356e+06 	1.937969e+04 	9.201084e+08 	1.763338e+00 	4.453904e+38 	
1.201365e+06 	1.917584e+04 	9.178795e+08 	1.782056e+00 	4.453898e+38 	
1.201373e+06 	1.897413e+04 	9.156569e+08 	1.800972e+00 	4.453891e+38 	
1.201381e+06 	1.877454e+04 	9.134405e+08 	1.820089e+00 	4.453885e+38 	
1.201390e+06 	1.857705e+04 	9.112304e+08 	1.839410e+00 	4.453878e+38 	
1.201398e+06 	1.838164e+04 	9.090264e+08 	1.858935e+00 	4.453871e+38 	
1.201406e+06 	1.818828e+04 	9.068286e+08 	1.878667e+00 	4.453865e+38 	
1.201414e+06 	1.799696e+04 	9.046369e+08 	1.898609e+00 	4.453858e+38 	
1.201423e+06 	1.780766e+04 	9.024514e+08 	1.918763e+00 	4.453852e+38 	
1.201431e+06 	1.762034e+04 	9.002719e+08 	1.939131e+00 	4.453845e+38 	
1.201439e+06 	1.743499e+04 	8.980985e+08 	1.959715e+00 	4.453838e+38 	
1.201447e+06 	1.725159e+04 	8.959312e+08 	1.980517e+00 	4.453832e+38 	
1.201456e+06 	1.707013e+04 	8.937700e+08 	2.001541e+00 	4.453825e+38 	
1.201464e+06 	1.689057e+04 	8.916149e+08 	2.022787e+00 	4.453818e+38 	
1.201472e+06 	1.671290e+04 	8.894658e+08 	2.044259e+00 	4.453812e+38 	
1.201480e+06 	1.653709e+04 	8.873228e+08 	2.065959e+00 	4.453805e+38 	
1.201489e+06 	1.636314e+04 	8.851857e+08 	2.087890e+00 	4.453798e+38 	
1.201497e+06 	1.619102e+04 	8.830546e+08 	2.110053e+00 	4.453792e+38 	
1.201505e+06 	1.602071e+04 	8.809295e+08 	2.132451e+00 	4.453785e+38 	
1.201513e+06 	1.585219e+04 	8.788103e+08 	2.155087e+00 	4.453778e+38 	
1.201521e+06 	1.568544e+04 	8.766970e+08 	2.177964e+00 	4.453772e+38 	
1.201529e+06 	1.552044e+04 	8.745897e+08 	2.201084e+00 	4.453765e+38 	
1.201538e+06 	1.535719e+04 	8.724884e+08 	2.224448e+00 	4.453758e+38 	
1.201546e+06 	1.519564e+04 	8.703929e+08 	2.248061e+00 	4.453751e+38 	
1.201554e+06 	1.503580e+04 	8.683033e+08 	2.271925e+00 	4.453745e+38 	
1.201562e+06 	1.487764e+04 	8.662196e+08 	2.296042e+00 	4.453738e+38 	
1.201570e+06 	1.472115e+04 	8.641417e+08 	2.320415e+00 	4.453731e+38 	
1.201578e+06 	1.456629e+04 	8.620696e+08 	2.345047e+00 	4.453725e+38 	
1.201587e+06 	1.441307e+04 	8.600034e+08 	2.369940e+00 	4.453718e+38 	
1.201595e+06 	1.426146e+04 	8.579429e+08 	2.395098e+00 	4.453711e+38 	
1.201603e+06 	1.411145e+04 	8.558881e+08 	2.420522e+00 	4.453704e+38 	
1.201611e+06 	1.396301e+04 	8.538392e+08 	2.446217e+00 	4.453697e+38 	
1.201619e+06 	1.381613e+04 	8.517961e+08 	2.472184e+00 	4.453691e+38 	
1.201627e+06 	1.367080e+04 	8.497588e+08 	2.498427e+00 	4.453684e+38 	
1.201635e+06 	1.352700e+04 	8.477271e+08 	2.524949e+00 	4.453677e+38 	
1.201643e+06 	1.338471e+04 	8.457012e+08 	2.551752e+00 	4.453670e+38 	
1.201651e+06 	1.324392e+04 	8.436809e+08 	2.578839e+00 	4.453664e+38 	
1.201660e+06 	1.310461e+04 	8.416663e+08 	2.606215e+00 	4.453657e+38 	
1.201668e+06 	1.296676e+04 	8.396574e+08 	2.633881e+00 	4.453650e+38 	
1.201676e+06 	1.283037e+04 	8.376541e+08 	2.661840e+00 	4.453643e+38 	
1.201684e+06 	1.269540e+04 	8.356564e+08 	2.690097e+00 	4.453636e+38 	
1.201692e+06 	1.256186e+04 	8.336644e+08 	2.718653e+00 	4.453629e+38 	
1.201700e+06 	1.242972e+04 	8.316781e+08 	2.747513e+00 	4.453623e+38 	
1.201708e+06 	1.229898e+04 	8.296973e+08 	2.776679e+00 	4.453616e+38 	
1.201716e+06 	1.216960e+04 	8.277220e+08 	2.806154e+00 	4.453609e+38 	
1.201724e+06 	1.204159e+04 	8.257524e+08 	2.835943e+00 	4.453602e+38 	
1.201732e+06 	1.191493e+04 	8.237882e+08 	2.866048e+00 	4.453595e+38 	
1.201740e+06 	1.178960e+04 	8.218296e+08 	2.896472e+00 	4.453588e+38 	
1.201748e+06 	1.166558e+04 	8.198765e+08 	2.927219e+00 	4.453581e+38 	
1.201756e+06 	1.154287e+04 	8.179289e+08 	2.958293e+00 	4.453575e+38 	
1.201764e+06 	1.142146e+04 	8.159868e+08 	2.989697e+00 	4.453568e+38 	
1.201772e+06 	1.130131e+04 	8.140502e+08 	3.021434e+00 	4.453561e+38 	
1.201780e+06 	1.118244e+04 	8.121191e+08 	3.053508e+00 	4.453554e+38 	
1.201788e+06 	1.106481e+04 	8.101935e+08 	3.085923e+00 	4.453547e+38 	
1.201796e+06 	1.094842e+04 	8.082732e+08 	3.118681e+00 	4.453540e+38 	
1.201804e+06 	1.083325e+04 	8.063584e+08 	3.151788e+00 	4.453533e+38 	
1.201812e+06 	1.071930e+04 	8.044489e+08 	3.185246e+00 	4.453526e+38 	
1.201820e+06 	1.060654e+04 	8.025448e+08 	3.219059e+00 	4.453519e+38 	
1.201828e+06 	1.049497e+04 	8.006461e+08 	3.253231e+00 	4.453512e+38 	
1.201836e+06 	1.038458e+04 	7.987527e+08 	3.287766e+00 	4.453505e+38 	
1.201844e+06 	1.027534e+04 	7.968647e+08 	3.322667e+00 	4.453498e+38 	
1.201852e+06 	1.016726e+04 	7.949822e+08 	3.357939e+00 	4.453491e+38 	
1.201860e+06 	1.006031e+04 	7.931049e+08 	3.393586e+00 	4.453484e+38 	
1.201868e+06 	9.954486e+03 	7.912329e+08 	3.429611e+00 	4.453477e+38 	
1.201876e+06 	9.849776e+03 	7.893662e+08 	3.466018e+00 	4.453470e+38 	
1.201884e+06 	9.746167e+03 	7.875047e+08 	3.502812e+00 	4.453463e+38 	
1.201892e+06 	9.643647e+03 	7.856485e+08 	3.539997e+00 	4.453456e+38 	
1.201900e+06 	9.542207e+03 	7.837976e+08 	3.577576e+00 	4.453449e+38 	
1.201908e+06 	9.441833e+03 	7.819519e+08 	3.615554e+00 	4.453442e+38 	
1.201916e+06 	9.342515e+03 	7.801114e+08 	3.653936e+00 	4.453435e+38 	
1.201923e+06 	9.244242e+03 	7.782761e+08 	3.692725e+00 	4.453428e+38 	
1.201931e+06 	9.147002e+03 	7.764461e+08 	3.731926e+00 	4.453421e+38 	
1.201939e+06 	9.050786e+03 	7.746213e+08 	3.771543e+00 	4.453414e+38 	
1.201947e+06 	8.955581e+03 	7.728016e+08 	3.811580e+00 	4.453407e+38 	
1.201955e+06 	8.861378e+03 	7.709870e+08 	3.852043e+00 	4.453400e+38 	
1.201963e+06 	8.768166e+03 	7.691776e+08 	3.892935e+00 	4.453392e+38 	
1.201971e+06 	8.675934e+03 	7.673733e+08 	3.934261e+00 	4.453385e+38 	
1.201979e+06 	8.584673e+03 	7.655741e+08 	3.976026e+00 	4.453378e+38 	
1.201987e+06 	8.494371e+03 	7.637800e+08 	4.018235e+00 	4.453371e+38 	
1.201995e+06 	8.405020e+03 	7.619910e+08 	4.060891e+00 	4.453364e+38 	
1.202002e+06 	8.316608e+03 	7.602071e+08 	4.104001e+00 	4.453357e+38 	
1.202010e+06 	8.229126e+03 	7.584283e+08 	4.147568e+00 	4.453350e+38 	
1.202018e+06 	8.142564e+03 	7.566545e+08 	4.191597e+00 	4.453342e+38 	
1.202026e+06 	8.056913e+03 	7.548858e+08 	4.236094e+00 	4.453335e+38 	
1.202034e+06 	7.972163e+03 	7.531220e+08 	4.281064e+00 	4.453328e+38 	
1.202042e+06 	7.888305e+03 	7.513633e+08 	4.326511e+00 	4.453321e+38 	
1.202050e+06 	7.805328e+03 	7.496096e+08 	4.372440e+00 	4.453313e+38 	
1.202057e+06 	7.723225e+03 	7.478608e+08 	4.418857e+00 	4.453306e+38 	
1.202065e+06 	7.641985e+03 	7.461170e+08 	4.465767e+00 	4.453299e+38 	
1.202073e+06 	7.561599e+03 	7.443782e+08 	4.513174e+00 	4.453292e+38 	
1.202081e+06 	7.482059e+03 	7.426443e+08 	4.561085e+00 	4.453284e+38 	
1.202089e+06 	7.403356e+03 	7.409154e+08 	4.609505e+00 	4.453277e+38 	
1.202097e+06 	7.325481e+03 	7.391914e+08 	4.658439e+00 	4.453270e+38 	
1.202104e+06 	7.248425e+03 	7.374723e+08 	4.707892e+00 	4.453263e+38 	
1.202112e+06 	7.172179e+03 	7.357581e+08 	4.757870e+00 	4.453255e+38 	
1.202120e+06 	7.096735e+03 	7.340487e+08 	4.808379e+00 	4.453248e+38 	
1.202128e+06 	7.022085e+03 	7.323442e+08 	4.859424e+00 	4.453241e+38 	
1.202136e+06 	6.948221e+03 	7.306445e+08 	4.911011e+00 	4.453233e+38 	
1.202144e+06 	6.875133e+03 	7.289498e+08 	4.963146e+00 	4.453226e+38 	
1.202151e+06 	6.802814e+03 	7.272599e+08 	5.015834e+00 	4.453219e+38 	
1.202159e+06 	6.731256e+03 	7.255748e+08 	5.069082e+00 	4.453211e+38 	
1.202167e+06 	6.660450e+03 	7.238945e+08 	5.122894e+00 	4.453204e+38 	
1.202175e+06 	6.590389e+03 	7.222190e+08 	5.177279e+00 	4.453196e+38 	
1.202183e+06 	6.521065e+03 	7.205482e+08 	5.232240e+00 	4.453189e+38 	
1.202190e+06 	6.452471e+03 	7.188822e+08 	5.287785e+00 	4.453182e+38 	
1.202198e+06 	6.384598e+03 	7.172210e+08 	5.343920e+00 	4.453174e+38 	
1.202206e+06 	6.317439e+03 	7.155644e+08 	5.400650e+00 	4.453167e+38 	
1.202214e+06 	6.250986e+03 	7.139127e+08 	5.457983e+00 	4.453159e+38 	
1.202222e+06 	6.185232e+03 	7.122656e+08 	5.515925e+00 	4.453152e+38 	
1.202229e+06 	6.120170e+03 	7.106233e+08 	5.574482e+00 	4.453144e+38 	
1.202237e+06 	6.055793e+03 	7.089858e+08 	5.633660e+00 	4.453137e+38 	
1.202245e+06 	5.992092e+03 	7.073528e+08 	5.693467e+00 	4.453129e+38 	
1.202253e+06 	5.929062e+03 	7.057246e+08 	5.753908e+00 	4.453122e+38 	
1.202260e+06 	5.866695e+03 	7.041009e+08 	5.814992e+00 	4.453114e+38 	
1.202268e+06 	5.804983e+03 	7.024820e+08 	5.876723e+00 	4.453107e+38 	
1.202276e+06 	5.743921e+03 	7.008676e+08 	5.939111e+00 	4.453099e+38 	
1.202284e+06 	5.683501e+03 	6.992578e+08 	6.002160e+00 	4.453092e+38 	
1.202291e+06 	5.623717e+03 	6.976527e+08 	6.065879e+00 	4.453084e+38 	
1.202299e+06 	5.564562e+03 	6.960522e+08 	6.130274e+00 	4.453076e+38 	
1.202307e+06 	5.506028e+03 	6.944564e+08 	6.195353e+00 	4.453069e+38 	
1.202315e+06 	5.448111e+03 	6.928650e+08 	6.261123e+00 	4.453061e+38 	
1.202322e+06 	5.390803e+03 	6.912783e+08 	6.327591e+00 	4.453053e+38 	
1.202330e+06 	5.334097e+03 	6.896960e+08 	6.394765e+00 	4.453046e+38 	
1.202338e+06 	5.277988e+03 	6.881184e+08 	6.462652e+00 	4.453038e+38 	
1.202346e+06 	5.222469e+03 	6.865452e+08 	6.531259e+00 	4.453030e+38 	
1.202353e+06 	5.167535e+03 	6.849765e+08 	6.600595e+00 	4.453023e+38 	
1.202361e+06 	5.113178e+03 	6.834123e+08 	6.670668e+00 	4.453015e+38 	
1.202369e+06 	5.059393e+03 	6.818526e+08 	6.741484e+00 	4.453007e+38 	
1.202377e+06 	5.006173e+03 	6.802975e+08 	6.813051e+00 	4.453000e+38 	
