r (cm)      	rho (g/cm3) 	T (K)       	u (cm/s)    	L* (erg/s)  			 Edot= 1.785600e+39
1.200000e+06 	5.667408e+04 	1.444302e+09 	1.911652e+00 	6.327903e+38 	
1.200014e+06 	5.609884e+04 	1.441255e+09 	1.931204e+00 	6.327857e+38 	
1.200028e+06 	5.552944e+04 	1.438216e+09 	1.950956e+00 	6.327810e+38 	
1.200041e+06 	5.496581e+04 	1.435186e+09 	1.970910e+00 	6.327763e+38 	
1.200055e+06 	5.440791e+04 	1.432165e+09 	1.991069e+00 	6.327717e+38 	
1.200069e+06 	5.385567e+04 	1.429152e+09 	2.011433e+00 	6.327670e+38 	
1.200083e+06 	5.330903e+04 	1.426148e+09 	2.032005e+00 	6.327623e+38 	
1.200097e+06 	5.276795e+04 	1.423152e+09 	2.052788e+00 	6.327576e+38 	
1.200110e+06 	5.223235e+04 	1.420165e+09 	2.073784e+00 	6.327529e+38 	
1.200124e+06 	5.170219e+04 	1.417186e+09 	2.094994e+00 	6.327481e+38 	
1.200138e+06 	5.117742e+04 	1.414215e+09 	2.116422e+00 	6.327434e+38 	
1.200152e+06 	5.065797e+04 	1.411253e+09 	2.138068e+00 	6.327387e+38 	
1.200165e+06 	5.014379e+04 	1.408299e+09 	2.159936e+00 	6.327339e+38 	
1.200179e+06 	4.963483e+04 	1.405354e+09 	2.182028e+00 	6.327291e+38 	
1.200193e+06 	4.913104e+04 	1.402417e+09 	2.204345e+00 	6.327243e+38 	
1.200206e+06 	4.863236e+04 	1.399489e+09 	2.226891e+00 	6.327196e+38 	
1.200220e+06 	4.813874e+04 	1.396569e+09 	2.249667e+00 	6.327148e+38 	
1.200234e+06 	4.765013e+04 	1.393657e+09 	2.272677e+00 	6.327099e+38 	
1.200248e+06 	4.716648e+04 	1.390753e+09 	2.295921e+00 	6.327051e+38 	
1.200261e+06 	4.668774e+04 	1.387858e+09 	2.319404e+00 	6.327003e+38 	
1.200275e+06 	4.621386e+04 	1.384970e+09 	2.343126e+00 	6.326954e+38 	
1.200289e+06 	4.574479e+04 	1.382091e+09 	2.367092e+00 	6.326906e+38 	
1.200303e+06 	4.528048e+04 	1.379221e+09 	2.391302e+00 	6.326857e+38 	
1.200316e+06 	4.482088e+04 	1.376358e+09 	2.415760e+00 	6.326808e+38 	
1.200330e+06 	4.436595e+04 	1.373504e+09 	2.440468e+00 	6.326759e+38 	
1.200344e+06 	4.391564e+04 	1.370657e+09 	2.465429e+00 	6.326710e+38 	
1.200357e+06 	4.346989e+04 	1.367819e+09 	2.490646e+00 	6.326661e+38 	
1.200371e+06 	4.302868e+04 	1.364989e+09 	2.516120e+00 	6.326612e+38 	
1.200385e+06 	4.259193e+04 	1.362167e+09 	2.541854e+00 	6.326563e+38 	
1.200399e+06 	4.215963e+04 	1.359353e+09 	2.567852e+00 	6.326513e+38 	
1.200412e+06 	4.173171e+04 	1.356547e+09 	2.594116e+00 	6.326464e+38 	
1.200426e+06 	4.130813e+04 	1.353749e+09 	2.620649e+00 	6.326414e+38 	
1.200440e+06 	4.088885e+04 	1.350959e+09 	2.647452e+00 	6.326364e+38 	
1.200453e+06 	4.047383e+04 	1.348177e+09 	2.674531e+00 	6.326314e+38 	
1.200467e+06 	4.006302e+04 	1.345403e+09 	2.701885e+00 	6.326264e+38 	
1.200481e+06 	3.965638e+04 	1.342637e+09 	2.729520e+00 	6.326214e+38 	
1.200495e+06 	3.925387e+04 	1.339879e+09 	2.757438e+00 	6.326163e+38 	
1.200508e+06 	3.885544e+04 	1.337128e+09 	2.785641e+00 	6.326113e+38 	
1.200522e+06 	3.846106e+04 	1.334386e+09 	2.814132e+00 	6.326062e+38 	
1.200536e+06 	3.807068e+04 	1.331651e+09 	2.842915e+00 	6.326012e+38 	
1.200549e+06 	3.768426e+04 	1.328925e+09 	2.871992e+00 	6.325961e+38 	
1.200563e+06 	3.730177e+04 	1.326206e+09 	2.901367e+00 	6.325910e+38 	
1.200577e+06 	3.692315e+04 	1.323494e+09 	2.931042e+00 	6.325859e+38 	
1.200590e+06 	3.654839e+04 	1.320791e+09 	2.961020e+00 	6.325807e+38 	
1.200604e+06 	3.617742e+04 	1.318096e+09 	2.991306e+00 	6.325756e+38 	
1.200618e+06 	3.581022e+04 	1.315408e+09 	3.021901e+00 	6.325705e+38 	
1.200632e+06 	3.544674e+04 	1.312728e+09 	3.052809e+00 	6.325653e+38 	
1.200645e+06 	3.508696e+04 	1.310055e+09 	3.084033e+00 	6.325601e+38 	
1.200659e+06 	3.473083e+04 	1.307391e+09 	3.115576e+00 	6.325549e+38 	
1.200673e+06 	3.437831e+04 	1.304734e+09 	3.147442e+00 	6.325497e+38 	
1.200686e+06 	3.402937e+04 	1.302084e+09 	3.179634e+00 	6.325445e+38 	
1.200700e+06 	3.368397e+04 	1.299442e+09 	3.212155e+00 	6.325393e+38 	
1.200714e+06 	3.334208e+04 	1.296808e+09 	3.245009e+00 	6.325340e+38 	
1.200727e+06 	3.300366e+04 	1.294181e+09 	3.278199e+00 	6.325288e+38 	
1.200741e+06 	3.266867e+04 	1.291563e+09 	3.311728e+00 	6.325235e+38 	
1.200755e+06 	3.233708e+04 	1.288951e+09 	3.345600e+00 	6.325182e+38 	
1.200769e+06 	3.200886e+04 	1.286347e+09 	3.379819e+00 	6.325129e+38 	
1.200782e+06 	3.168397e+04 	1.283751e+09 	3.414388e+00 	6.325076e+38 	
1.200796e+06 	3.136238e+04 	1.281162e+09 	3.449310e+00 	6.325023e+38 	
1.200810e+06 	3.104405e+04 	1.278580e+09 	3.484589e+00 	6.324969e+38 	
1.200823e+06 	3.072896e+04 	1.276006e+09 	3.520230e+00 	6.324916e+38 	
1.200837e+06 	3.041706e+04 	1.273440e+09 	3.556234e+00 	6.324862e+38 	
1.200851e+06 	3.010832e+04 	1.270880e+09 	3.592607e+00 	6.324808e+38 	
1.200865e+06 	2.980272e+04 	1.268329e+09 	3.629352e+00 	6.324754e+38 	
1.200878e+06 	2.950023e+04 	1.265784e+09 	3.666473e+00 	6.324700e+38 	
1.200892e+06 	2.920080e+04 	1.263247e+09 	3.703974e+00 	6.324646e+38 	
1.200906e+06 	2.890441e+04 	1.260718e+09 	3.741858e+00 	6.324591e+38 	
1.200919e+06 	2.861103e+04 	1.258195e+09 	3.780129e+00 	6.324536e+38 	
1.200933e+06 	2.832063e+04 	1.255680e+09 	3.818792e+00 	6.324482e+38 	
1.200947e+06 	2.803318e+04 	1.253173e+09 	3.857851e+00 	6.324427e+38 	
1.200961e+06 	2.774864e+04 	1.250672e+09 	3.897309e+00 	6.324372e+38 	
1.200974e+06 	2.746699e+04 	1.248179e+09 	3.937170e+00 	6.324316e+38 	
1.200988e+06 	2.718820e+04 	1.245693e+09 	3.977439e+00 	6.324261e+38 	
1.201002e+06 	2.691224e+04 	1.243214e+09 	4.018120e+00 	6.324205e+38 	
1.201015e+06 	2.663908e+04 	1.240743e+09 	4.059217e+00 	6.324150e+38 	
1.201029e+06 	2.636869e+04 	1.238279e+09 	4.100734e+00 	6.324094e+38 	
1.201043e+06 	2.610105e+04 	1.235821e+09 	4.142676e+00 	6.324038e+38 	
1.201057e+06 	2.583613e+04 	1.233371e+09 	4.185047e+00 	6.323981e+38 	
1.201070e+06 	2.557389e+04 	1.230929e+09 	4.227852e+00 	6.323925e+38 	
1.201084e+06 	2.531432e+04 	1.228493e+09 	4.271094e+00 	6.323868e+38 	
1.201098e+06 	2.505737e+04 	1.226064e+09 	4.314778e+00 	6.323812e+38 	
1.201112e+06 	2.480304e+04 	1.223642e+09 	4.358909e+00 	6.323755e+38 	
1.201125e+06 	2.455129e+04 	1.221228e+09 	4.403492e+00 	6.323698e+38 	
1.201139e+06 	2.430210e+04 	1.218820e+09 	4.448530e+00 	6.323641e+38 	
1.201153e+06 	2.405543e+04 	1.216420e+09 	4.494029e+00 	6.323583e+38 	
1.201167e+06 	2.381127e+04 	1.214026e+09 	4.539993e+00 	6.323526e+38 	
1.201180e+06 	2.356958e+04 	1.211640e+09 	4.586428e+00 	6.323468e+38 	
1.201194e+06 	2.333035e+04 	1.209260e+09 	4.633337e+00 	6.323410e+38 	
1.201208e+06 	2.309355e+04 	1.206888e+09 	4.680726e+00 	6.323352e+38 	
1.201222e+06 	2.285915e+04 	1.204522e+09 	4.728600e+00 	6.323293e+38 	
1.201235e+06 	2.262713e+04 	1.202164e+09 	4.776964e+00 	6.323235e+38 	
1.201249e+06 	2.239746e+04 	1.199812e+09 	4.825822e+00 	6.323176e+38 	
1.201263e+06 	2.217013e+04 	1.197467e+09 	4.875179e+00 	6.323118e+38 	
1.201277e+06 	2.194510e+04 	1.195129e+09 	4.925042e+00 	6.323059e+38 	
1.201291e+06 	2.172236e+04 	1.192798e+09 	4.975414e+00 	6.322999e+38 	
1.201304e+06 	2.150188e+04 	1.190473e+09 	5.026302e+00 	6.322940e+38 	
1.201318e+06 	2.128363e+04 	1.188156e+09 	5.077710e+00 	6.322881e+38 	
1.201332e+06 	2.106761e+04 	1.185845e+09 	5.129644e+00 	6.322821e+38 	
1.201346e+06 	2.085377e+04 	1.183541e+09 	5.182109e+00 	6.322761e+38 	
1.201360e+06 	2.064210e+04 	1.181244e+09 	5.235110e+00 	6.322701e+38 	
1.201373e+06 	2.043259e+04 	1.178954e+09 	5.288654e+00 	6.322640e+38 	
1.201387e+06 	2.022520e+04 	1.176670e+09 	5.342745e+00 	6.322580e+38 	
1.201401e+06 	2.001991e+04 	1.174393e+09 	5.397389e+00 	6.322519e+38 	
1.201415e+06 	1.981671e+04 	1.172123e+09 	5.452592e+00 	6.322458e+38 	
1.201429e+06 	1.961557e+04 	1.169859e+09 	5.508360e+00 	6.322397e+38 	
1.201442e+06 	1.941647e+04 	1.167602e+09 	5.564698e+00 	6.322336e+38 	
1.201456e+06 	1.921939e+04 	1.165352e+09 	5.621612e+00 	6.322275e+38 	
1.201470e+06 	1.902432e+04 	1.163108e+09 	5.679108e+00 	6.322213e+38 	
1.201484e+06 	1.883122e+04 	1.160871e+09 	5.737193e+00 	6.322151e+38 	
1.201498e+06 	1.864008e+04 	1.158641e+09 	5.795871e+00 	6.322089e+38 	
1.201512e+06 	1.845089e+04 	1.156417e+09 	5.855149e+00 	6.322027e+38 	
1.201526e+06 	1.826361e+04 	1.154200e+09 	5.915034e+00 	6.321964e+38 	
1.201539e+06 	1.807823e+04 	1.151989e+09 	5.975531e+00 	6.321901e+38 	
1.201553e+06 	1.789474e+04 	1.149785e+09 	6.036646e+00 	6.321839e+38 	
1.201567e+06 	1.771311e+04 	1.147587e+09 	6.098387e+00 	6.321775e+38 	
1.201581e+06 	1.753332e+04 	1.145396e+09 	6.160759e+00 	6.321712e+38 	
1.201595e+06 	1.735536e+04 	1.143211e+09 	6.223769e+00 	6.321649e+38 	
1.201609e+06 	1.717920e+04 	1.141033e+09 	6.287424e+00 	6.321585e+38 	
1.201623e+06 	1.700483e+04 	1.138862e+09 	6.351729e+00 	6.321521e+38 	
1.201637e+06 	1.683223e+04 	1.136696e+09 	6.416692e+00 	6.321457e+38 	
1.201651e+06 	1.666139e+04 	1.134537e+09 	6.482319e+00 	6.321392e+38 	
1.201665e+06 	1.649227e+04 	1.132385e+09 	6.548617e+00 	6.321328e+38 	
1.201678e+06 	1.632488e+04 	1.130239e+09 	6.615594e+00 	6.321263e+38 	
1.201692e+06 	1.615918e+04 	1.128099e+09 	6.683255e+00 	6.321198e+38 	
1.201706e+06 	1.599516e+04 	1.125966e+09 	6.751608e+00 	6.321132e+38 	
1.201720e+06 	1.583281e+04 	1.123839e+09 	6.820660e+00 	6.321067e+38 	
1.201734e+06 	1.567211e+04 	1.121718e+09 	6.890419e+00 	6.321001e+38 	
1.201748e+06 	1.551304e+04 	1.119604e+09 	6.960891e+00 	6.320935e+38 	
1.201762e+06 	1.535558e+04 	1.117496e+09 	7.032083e+00 	6.320869e+38 	
1.201776e+06 	1.519972e+04 	1.115394e+09 	7.104003e+00 	6.320803e+38 	
1.201790e+06 	1.504544e+04 	1.113298e+09 	7.176659e+00 	6.320736e+38 	
1.201804e+06 	1.489273e+04 	1.111209e+09 	7.250058e+00 	6.320669e+38 	
1.201818e+06 	1.474157e+04 	1.109126e+09 	7.324208e+00 	6.320602e+38 	
1.201832e+06 	1.459194e+04 	1.107049e+09 	7.399116e+00 	6.320535e+38 	
1.201846e+06 	1.444384e+04 	1.104978e+09 	7.474789e+00 	6.320467e+38 	
1.201860e+06 	1.429723e+04 	1.102914e+09 	7.551237e+00 	6.320399e+38 	
1.201874e+06 	1.415211e+04 	1.100855e+09 	7.628466e+00 	6.320331e+38 	
1.201888e+06 	1.400847e+04 	1.098803e+09 	7.706485e+00 	6.320263e+38 	
1.201902e+06 	1.386628e+04 	1.096757e+09 	7.785302e+00 	6.320194e+38 	
1.201916e+06 	1.372554e+04 	1.094718e+09 	7.864925e+00 	6.320125e+38 	
1.201930e+06 	1.358623e+04 	1.092684e+09 	7.945362e+00 	6.320056e+38 	
1.201944e+06 	1.344833e+04 	1.090656e+09 	8.026622e+00 	6.319987e+38 	
1.201958e+06 	1.331183e+04 	1.088634e+09 	8.108712e+00 	6.319917e+38 	
1.201973e+06 	1.317671e+04 	1.086619e+09 	8.191642e+00 	6.319847e+38 	
1.201987e+06 	1.304297e+04 	1.084609e+09 	8.275421e+00 	6.319777e+38 	
1.202001e+06 	1.291058e+04 	1.082606e+09 	8.360055e+00 	6.319707e+38 	
1.202015e+06 	1.277954e+04 	1.080608e+09 	8.445555e+00 	6.319636e+38 	
1.202029e+06 	1.264983e+04 	1.078617e+09 	8.531930e+00 	6.319566e+38 	
1.202043e+06 	1.252143e+04 	1.076631e+09 	8.619188e+00 	6.319494e+38 	
1.202057e+06 	1.239434e+04 	1.074652e+09 	8.707338e+00 	6.319423e+38 	
1.202071e+06 	1.226854e+04 	1.072678e+09 	8.796389e+00 	6.319351e+38 	
1.202086e+06 	1.214401e+04 	1.070710e+09 	8.886351e+00 	6.319279e+38 	
1.202100e+06 	1.202075e+04 	1.068749e+09 	8.977233e+00 	6.319207e+38 	
1.202114e+06 	1.189874e+04 	1.066793e+09 	9.069044e+00 	6.319135e+38 	
1.202128e+06 	1.177797e+04 	1.064843e+09 	9.161794e+00 	6.319062e+38 	
1.202142e+06 	1.165842e+04 	1.062899e+09 	9.255492e+00 	6.318989e+38 	
1.202156e+06 	1.154009e+04 	1.060961e+09 	9.350148e+00 	6.318916e+38 	
1.202171e+06 	1.142296e+04 	1.059028e+09 	9.445773e+00 	6.318842e+38 	
1.202185e+06 	1.130701e+04 	1.057102e+09 	9.542375e+00 	6.318768e+38 	
1.202199e+06 	1.119225e+04 	1.055181e+09 	9.639965e+00 	6.318694e+38 	
1.202213e+06 	1.107865e+04 	1.053266e+09 	9.738552e+00 	6.318620e+38 	
1.202228e+06 	1.096620e+04 	1.051357e+09 	9.838148e+00 	6.318545e+38 	
1.202242e+06 	1.085489e+04 	1.049454e+09 	9.938762e+00 	6.318470e+38 	
1.202256e+06 	1.074471e+04 	1.047556e+09 	1.004041e+01 	6.318395e+38 	
1.202270e+06 	1.063565e+04 	1.045664e+09 	1.014309e+01 	6.318319e+38 	
1.202285e+06 	1.052770e+04 	1.043778e+09 	1.024682e+01 	6.318243e+38 	
1.202299e+06 	1.042085e+04 	1.041898e+09 	1.035161e+01 	6.318167e+38 	
1.202313e+06 	1.031507e+04 	1.040023e+09 	1.045748e+01 	6.318090e+38 	
1.202328e+06 	1.021038e+04 	1.038154e+09 	1.056442e+01 	6.318014e+38 	
1.202342e+06 	1.010674e+04 	1.036290e+09 	1.067246e+01 	6.317936e+38 	
1.202356e+06 	1.000416e+04 	1.034433e+09 	1.078161e+01 	6.317859e+38 	
1.202371e+06 	9.902616e+03 	1.032581e+09 	1.089187e+01 	6.317781e+38 	
1.202385e+06 	9.802104e+03 	1.030734e+09 	1.100326e+01 	6.317703e+38 	
1.202399e+06 	9.702613e+03 	1.028893e+09 	1.111578e+01 	6.317625e+38 	
1.202414e+06 	9.604132e+03 	1.027058e+09 	1.122946e+01 	6.317546e+38 	
1.202428e+06 	9.506650e+03 	1.025228e+09 	1.134430e+01 	6.317467e+38 	
1.202443e+06 	9.410157e+03 	1.023404e+09 	1.146032e+01 	6.317388e+38 	
1.202457e+06 	9.314644e+03 	1.021586e+09 	1.157752e+01 	6.317309e+38 	
1.202472e+06 	9.220101e+03 	1.019773e+09 	1.169592e+01 	6.317229e+38 	
1.202486e+06 	9.126517e+03 	1.017965e+09 	1.181553e+01 	6.317148e+38 	
1.202500e+06 	9.033882e+03 	1.016163e+09 	1.193636e+01 	6.317068e+38 	
1.202515e+06 	8.942189e+03 	1.014367e+09 	1.205842e+01 	6.316987e+38 	
1.202529e+06 	8.851425e+03 	1.012576e+09 	1.218174e+01 	6.316906e+38 	
1.202544e+06 	8.761583e+03 	1.010790e+09 	1.230632e+01 	6.316824e+38 	
1.202558e+06 	8.672653e+03 	1.009010e+09 	1.243217e+01 	6.316742e+38 	
1.202573e+06 	8.584626e+03 	1.007236e+09 	1.255930e+01 	6.316660e+38 	
1.202588e+06 	8.497492e+03 	1.005466e+09 	1.268774e+01 	6.316577e+38 	
1.202602e+06 	8.411243e+03 	1.003702e+09 	1.281749e+01 	6.316495e+38 	
1.202617e+06 	8.325868e+03 	1.001944e+09 	1.294857e+01 	6.316411e+38 	
1.202631e+06 	8.241361e+03 	1.000191e+09 	1.308098e+01 	6.316328e+38 	
1.202646e+06 	8.157711e+03 	9.984432e+08 	1.321475e+01 	6.316244e+38 	
1.202660e+06 	8.074910e+03 	9.967009e+08 	1.334989e+01 	6.316159e+38 	
1.202675e+06 	7.992950e+03 	9.949639e+08 	1.348641e+01 	6.316075e+38 	
1.202690e+06 	7.911822e+03 	9.932322e+08 	1.362433e+01 	6.315990e+38 	
1.202704e+06 	7.831517e+03 	9.915059e+08 	1.376365e+01 	6.315904e+38 	
1.202719e+06 	7.752027e+03 	9.897848e+08 	1.390440e+01 	6.315819e+38 	
1.202734e+06 	7.673344e+03 	9.880690e+08 	1.404659e+01 	6.315732e+38 	
1.202748e+06 	7.595459e+03 	9.863584e+08 	1.419023e+01 	6.315646e+38 	
1.202763e+06 	7.518365e+03 	9.846531e+08 	1.433534e+01 	6.315559e+38 	
1.202778e+06 	7.442054e+03 	9.829530e+08 	1.448194e+01 	6.315472e+38 	
1.202793e+06 	7.366517e+03 	9.812581e+08 	1.463003e+01 	6.315384e+38 	
1.202807e+06 	7.291747e+03 	9.795686e+08 	1.477964e+01 	6.315296e+38 	
1.202822e+06 	7.217736e+03 	9.778842e+08 	1.493077e+01 	6.315208e+38 	
1.202837e+06 	7.144476e+03 	9.762050e+08 	1.508345e+01 	6.315119e+38 	
1.202852e+06 	7.071959e+03 	9.745310e+08 	1.523770e+01 	6.315030e+38 	
1.202867e+06 	7.000179e+03 	9.728621e+08 	1.539352e+01 	6.314941e+38 	
1.202881e+06 	6.929127e+03 	9.711984e+08 	1.555093e+01 	6.314851e+38 	
1.202896e+06 	6.858797e+03 	9.695397e+08 	1.570995e+01 	6.314760e+38 	
1.202911e+06 	6.789180e+03 	9.678862e+08 	1.587060e+01 	6.314670e+38 	
1.202926e+06 	6.720270e+03 	9.662377e+08 	1.603289e+01 	6.314579e+38 	
1.202941e+06 	6.652059e+03 	9.645944e+08 	1.619683e+01 	6.314487e+38 	
1.202956e+06 	6.584541e+03 	9.629561e+08 	1.636246e+01 	6.314395e+38 	
1.202971e+06 	6.517708e+03 	9.613230e+08 	1.652978e+01 	6.314303e+38 	
1.202986e+06 	6.451553e+03 	9.596949e+08 	1.669880e+01 	6.314210e+38 	
1.203001e+06 	6.386070e+03 	9.580718e+08 	1.686956e+01 	6.314117e+38 	
1.203016e+06 	6.321251e+03 	9.564537e+08 	1.704206e+01 	6.314024e+38 	
1.203031e+06 	6.257090e+03 	9.548406e+08 	1.721633e+01 	6.313930e+38 	
1.203046e+06 	6.193581e+03 	9.532325e+08 	1.739237e+01 	6.313835e+38 	
1.203061e+06 	6.130716e+03 	9.516294e+08 	1.757022e+01 	6.313741e+38 	
1.203076e+06 	6.068489e+03 	9.500312e+08 	1.774988e+01 	6.313645e+38 	
1.203091e+06 	6.006894e+03 	9.484379e+08 	1.793138e+01 	6.313550e+38 	
1.203106e+06 	5.945924e+03 	9.468496e+08 	1.811474e+01 	6.313454e+38 	
1.203121e+06 	5.885573e+03 	9.452663e+08 	1.829997e+01 	6.313357e+38 	
1.203136e+06 	5.825835e+03 	9.436879e+08 	1.848709e+01 	6.313260e+38 	
1.203151e+06 	5.766702e+03 	9.421144e+08 	1.867613e+01 	6.313163e+38 	
1.203166e+06 	5.708170e+03 	9.405458e+08 	1.886710e+01 	6.313065e+38 	
1.203181e+06 	5.650232e+03 	9.389820e+08 	1.906002e+01 	6.312966e+38 	
1.203197e+06 	5.592883e+03 	9.374231e+08 	1.925491e+01 	6.312868e+38 	
1.203212e+06 	5.536115e+03 	9.358690e+08 	1.945179e+01 	6.312769e+38 	
1.203227e+06 	5.479923e+03 	9.343197e+08 	1.965069e+01 	6.312669e+38 	
1.203242e+06 	5.424302e+03 	9.327753e+08 	1.985162e+01 	6.312569e+38 	
1.203258e+06 	5.369245e+03 	9.312356e+08 	2.005460e+01 	6.312468e+38 	
1.203273e+06 	5.314748e+03 	9.297008e+08 	2.025966e+01 	6.312367e+38 	
1.203288e+06 	5.260803e+03 	9.281707e+08 	2.046682e+01 	6.312266e+38 	
1.203303e+06 	5.207406e+03 	9.266455e+08 	2.067609e+01 	6.312164e+38 	
1.203319e+06 	5.154551e+03 	9.251250e+08 	2.088750e+01 	6.312061e+38 	
1.203334e+06 	5.102232e+03 	9.236092e+08 	2.110107e+01 	6.311958e+38 	
1.203350e+06 	5.050444e+03 	9.220981e+08 	2.131683e+01 	6.311855e+38 	
1.203365e+06 	4.999182e+03 	9.205917e+08 	2.153479e+01 	6.311751e+38 	
1.203380e+06 	4.948441e+03 	9.190900e+08 	2.175498e+01 	6.311646e+38 	
1.203396e+06 	4.898214e+03 	9.175930e+08 	2.197742e+01 	6.311541e+38 	
1.203411e+06 	4.848497e+03 	9.161007e+08 	2.220213e+01 	6.311436e+38 	
1.203427e+06 	4.799285e+03 	9.146130e+08 	2.242914e+01 	6.311330e+38 	
1.203442e+06 	4.750572e+03 	9.131300e+08 	2.265847e+01 	6.311224e+38 	
1.203458e+06 	4.702354e+03 	9.116516e+08 	2.289014e+01 	6.311117e+38 	
1.203473e+06 	4.654625e+03 	9.101779e+08 	2.312418e+01 	6.311009e+38 	
1.203489e+06 	4.607381e+03 	9.087088e+08 	2.336061e+01 	6.310901e+38 	
1.203504e+06 	4.560616e+03 	9.072442e+08 	2.359946e+01 	6.310793e+38 	
1.203520e+06 	4.514325e+03 	9.057843e+08 	2.384075e+01 	6.310684e+38 	
1.203536e+06 	4.468505e+03 	9.043289e+08 	2.408451e+01 	6.310574e+38 	
1.203551e+06 	4.423150e+03 	9.028780e+08 	2.433076e+01 	6.310464e+38 	
1.203567e+06 	4.378255e+03 	9.014317e+08 	2.457952e+01 	6.310354e+38 	
1.203583e+06 	4.333815e+03 	8.999898e+08 	2.483083e+01 	6.310243e+38 	
1.203598e+06 	4.289827e+03 	8.985525e+08 	2.508471e+01 	6.310131e+38 	
1.203614e+06 	4.246286e+03 	8.971197e+08 	2.534118e+01 	6.310019e+38 	
1.203630e+06 	4.203186e+03 	8.956915e+08 	2.560027e+01 	6.309906e+38 	
1.203646e+06 	4.160523e+03 	8.942677e+08 	2.586201e+01 	6.309793e+38 	
1.203662e+06 	4.118294e+03 	8.928484e+08 	2.612642e+01 	6.309679e+38 	
1.203677e+06 	4.076493e+03 	8.914336e+08 	2.639354e+01 	6.309564e+38 	
1.203693e+06 	4.035117e+03 	8.900232e+08 	2.666338e+01 	6.309449e+38 	
1.203709e+06 	3.994161e+03 	8.886172e+08 	2.693599e+01 	6.309334e+38 	
1.203725e+06 	3.953620e+03 	8.872156e+08 	2.721138e+01 	6.309218e+38 	
1.203741e+06 	3.913491e+03 	8.858183e+08 	2.748958e+01 	6.309101e+38 	
1.203757e+06 	3.873769e+03 	8.844255e+08 	2.777063e+01 	6.308984e+38 	
1.203773e+06 	3.834450e+03 	8.830370e+08 	2.805455e+01 	6.308866e+38 	
1.203789e+06 	3.795530e+03 	8.816529e+08 	2.834137e+01 	6.308747e+38 	
1.203805e+06 	3.757006e+03 	8.802732e+08 	2.863112e+01 	6.308628e+38 	
1.203821e+06 	3.718872e+03 	8.788979e+08 	2.892383e+01 	6.308509e+38 	
1.203837e+06 	3.681126e+03 	8.775269e+08 	2.921953e+01 	6.308389e+38 	
1.203853e+06 	3.643762e+03 	8.761601e+08 	2.951826e+01 	6.308268e+38 	
1.203869e+06 	3.606778e+03 	8.747977e+08 	2.982004e+01 	6.308146e+38 	
1.203885e+06 	3.570169e+03 	8.734395e+08 	3.012490e+01 	6.308024e+38 	
1.203902e+06 	3.533932e+03 	8.720857e+08 	3.043288e+01 	6.307901e+38 	
1.203918e+06 	3.498063e+03 	8.707360e+08 	3.074400e+01 	6.307778e+38 	
1.203934e+06 	3.462557e+03 	8.693906e+08 	3.105830e+01 	6.307654e+38 	
1.203950e+06 	3.427412e+03 	8.680494e+08 	3.137582e+01 	6.307530e+38 	
1.203967e+06 	3.392624e+03 	8.667125e+08 	3.169658e+01 	6.307404e+38 	
1.203983e+06 	3.358189e+03 	8.653797e+08 	3.202062e+01 	6.307278e+38 	
1.203999e+06 	3.324103e+03 	8.640513e+08 	3.234796e+01 	6.307152e+38 	
1.204016e+06 	3.290364e+03 	8.627270e+08 	3.267866e+01 	6.307025e+38 	
