r (cm)      	rho (g/cm3) 	T (K)       	u (cm/s)    	L* (erg/s)  			 Edot= 2.618776e+39
1.200000e+06 	3.097253e+04 	1.511047e+09 	5.543917e+00 	7.897989e+38 	
1.200020e+06 	3.066462e+04 	1.508488e+09 	5.599374e+00 	7.897805e+38 	
1.200040e+06 	3.035977e+04 	1.505936e+09 	5.655385e+00 	7.897621e+38 	
1.200060e+06 	3.005794e+04 	1.503392e+09 	5.711957e+00 	7.897436e+38 	
1.200080e+06 	2.975912e+04 	1.500855e+09 	5.769095e+00 	7.897250e+38 	
1.200100e+06 	2.946327e+04 	1.498326e+09 	5.826804e+00 	7.897063e+38 	
1.200120e+06 	2.917036e+04 	1.495804e+09 	5.885090e+00 	7.896876e+38 	
1.200140e+06 	2.888036e+04 	1.493290e+09 	5.943958e+00 	7.896688e+38 	
1.200161e+06 	2.859325e+04 	1.490784e+09 	6.003416e+00 	7.896499e+38 	
1.200181e+06 	2.830899e+04 	1.488284e+09 	6.063468e+00 	7.896309e+38 	
1.200201e+06 	2.802755e+04 	1.485793e+09 	6.124120e+00 	7.896119e+38 	
1.200221e+06 	2.774892e+04 	1.483308e+09 	6.185379e+00 	7.895927e+38 	
1.200241e+06 	2.747305e+04 	1.480832e+09 	6.247250e+00 	7.895735e+38 	
1.200261e+06 	2.719993e+04 	1.478362e+09 	6.309740e+00 	7.895542e+38 	
1.200282e+06 	2.692952e+04 	1.475900e+09 	6.372855e+00 	7.895348e+38 	
1.200302e+06 	2.666180e+04 	1.473445e+09 	6.436601e+00 	7.895154e+38 	
1.200322e+06 	2.639674e+04 	1.470998e+09 	6.500984e+00 	7.894958e+38 	
1.200343e+06 	2.613431e+04 	1.468558e+09 	6.566012e+00 	7.894762e+38 	
1.200363e+06 	2.587450e+04 	1.466125e+09 	6.631689e+00 	7.894565e+38 	
1.200383e+06 	2.561727e+04 	1.463699e+09 	6.698023e+00 	7.894367e+38 	
1.200404e+06 	2.536259e+04 	1.461281e+09 	6.765020e+00 	7.894168e+38 	
1.200424e+06 	2.511045e+04 	1.458869e+09 	6.832687e+00 	7.893969e+38 	
1.200444e+06 	2.486081e+04 	1.456465e+09 	6.901031e+00 	7.893768e+38 	
1.200465e+06 	2.461366e+04 	1.454069e+09 	6.970057e+00 	7.893567e+38 	
1.200485e+06 	2.436896e+04 	1.451679e+09 	7.039775e+00 	7.893365e+38 	
1.200506e+06 	2.412670e+04 	1.449297e+09 	7.110189e+00 	7.893161e+38 	
1.200526e+06 	2.388684e+04 	1.446921e+09 	7.181307e+00 	7.892957e+38 	
1.200547e+06 	2.364937e+04 	1.444553e+09 	7.253136e+00 	7.892753e+38 	
1.200567e+06 	2.341426e+04 	1.442192e+09 	7.325683e+00 	7.892547e+38 	
1.200588e+06 	2.318148e+04 	1.439838e+09 	7.398956e+00 	7.892340e+38 	
1.200609e+06 	2.295103e+04 	1.437491e+09 	7.472961e+00 	7.892132e+38 	
1.200629e+06 	2.272286e+04 	1.435150e+09 	7.547706e+00 	7.891924e+38 	
1.200650e+06 	2.249696e+04 	1.432817e+09 	7.623198e+00 	7.891714e+38 	
1.200670e+06 	2.227330e+04 	1.430491e+09 	7.699445e+00 	7.891504e+38 	
1.200691e+06 	2.205187e+04 	1.428172e+09 	7.776455e+00 	7.891293e+38 	
1.200712e+06 	2.183264e+04 	1.425860e+09 	7.854234e+00 	7.891081e+38 	
1.200733e+06 	2.161559e+04 	1.423555e+09 	7.932791e+00 	7.890867e+38 	
1.200753e+06 	2.140070e+04 	1.421257e+09 	8.012133e+00 	7.890653e+38 	
1.200774e+06 	2.118795e+04 	1.418965e+09 	8.092268e+00 	7.890438e+38 	
1.200795e+06 	2.097731e+04 	1.416681e+09 	8.173205e+00 	7.890222e+38 	
1.200816e+06 	2.076876e+04 	1.414403e+09 	8.254950e+00 	7.890005e+38 	
1.200837e+06 	2.056229e+04 	1.412132e+09 	8.337513e+00 	7.889787e+38 	
1.200858e+06 	2.035787e+04 	1.409868e+09 	8.420901e+00 	7.889568e+38 	
1.200878e+06 	2.015548e+04 	1.407610e+09 	8.505123e+00 	7.889348e+38 	
1.200899e+06 	1.995510e+04 	1.405360e+09 	8.590186e+00 	7.889127e+38 	
1.200920e+06 	1.975672e+04 	1.403116e+09 	8.676100e+00 	7.888905e+38 	
1.200941e+06 	1.956030e+04 	1.400879e+09 	8.762873e+00 	7.888682e+38 	
1.200962e+06 	1.936585e+04 	1.398649e+09 	8.850513e+00 	7.888458e+38 	
1.200983e+06 	1.917332e+04 	1.396425e+09 	8.939030e+00 	7.888233e+38 	
1.201005e+06 	1.898271e+04 	1.394208e+09 	9.028431e+00 	7.888007e+38 	
1.201026e+06 	1.879399e+04 	1.391998e+09 	9.118725e+00 	7.887780e+38 	
1.201047e+06 	1.860715e+04 	1.389794e+09 	9.209923e+00 	7.887552e+38 	
1.201068e+06 	1.842217e+04 	1.387597e+09 	9.302032e+00 	7.887323e+38 	
1.201089e+06 	1.823902e+04 	1.385407e+09 	9.395061e+00 	7.887092e+38 	
1.201110e+06 	1.805770e+04 	1.383223e+09 	9.489021e+00 	7.886861e+38 	
1.201132e+06 	1.787818e+04 	1.381046e+09 	9.583919e+00 	7.886629e+38 	
1.201153e+06 	1.770044e+04 	1.378875e+09 	9.679766e+00 	7.886395e+38 	
1.201174e+06 	1.752447e+04 	1.376711e+09 	9.776572e+00 	7.886161e+38 	
1.201196e+06 	1.735025e+04 	1.374553e+09 	9.874345e+00 	7.885925e+38 	
1.201217e+06 	1.717776e+04 	1.372402e+09 	9.973095e+00 	7.885688e+38 	
1.201238e+06 	1.700699e+04 	1.370257e+09 	1.007283e+01 	7.885450e+38 	
1.201260e+06 	1.683791e+04 	1.368119e+09 	1.017357e+01 	7.885211e+38 	
1.201281e+06 	1.667052e+04 	1.365987e+09 	1.027531e+01 	7.884971e+38 	
1.201303e+06 	1.650479e+04 	1.363861e+09 	1.037806e+01 	7.884730e+38 	
1.201324e+06 	1.634071e+04 	1.361742e+09 	1.048185e+01 	7.884488e+38 	
1.201346e+06 	1.617825e+04 	1.359629e+09 	1.058667e+01 	7.884244e+38 	
1.201367e+06 	1.601742e+04 	1.357523e+09 	1.069254e+01 	7.884000e+38 	
1.201389e+06 	1.585818e+04 	1.355423e+09 	1.079947e+01 	7.883754e+38 	
1.201411e+06 	1.570053e+04 	1.353329e+09 	1.090746e+01 	7.883507e+38 	
1.201432e+06 	1.554444e+04 	1.351242e+09 	1.101654e+01 	7.883258e+38 	
1.201454e+06 	1.538990e+04 	1.349161e+09 	1.112671e+01 	7.883009e+38 	
1.201476e+06 	1.523690e+04 	1.347086e+09 	1.123797e+01 	7.882759e+38 	
1.201497e+06 	1.508543e+04 	1.345017e+09 	1.135035e+01 	7.882507e+38 	
1.201519e+06 	1.493545e+04 	1.342955e+09 	1.146385e+01 	7.882254e+38 	
1.201541e+06 	1.478697e+04 	1.340899e+09 	1.157849e+01 	7.882000e+38 	
1.201563e+06 	1.463997e+04 	1.338849e+09 	1.169427e+01 	7.881744e+38 	
1.201585e+06 	1.449442e+04 	1.336805e+09 	1.181121e+01 	7.881487e+38 	
1.201607e+06 	1.435033e+04 	1.334767e+09 	1.192932e+01 	7.881230e+38 	
1.201629e+06 	1.420766e+04 	1.332735e+09 	1.204861e+01 	7.880970e+38 	
1.201651e+06 	1.406642e+04 	1.330710e+09 	1.216909e+01 	7.880710e+38 	
1.201673e+06 	1.392658e+04 	1.328691e+09 	1.229077e+01 	7.880448e+38 	
1.201695e+06 	1.378812e+04 	1.326677e+09 	1.241367e+01 	7.880185e+38 	
1.201717e+06 	1.365105e+04 	1.324670e+09 	1.253780e+01 	7.879921e+38 	
1.201739e+06 	1.351534e+04 	1.322669e+09 	1.266317e+01 	7.879656e+38 	
1.201761e+06 	1.338097e+04 	1.320674e+09 	1.278979e+01 	7.879389e+38 	
1.201783e+06 	1.324795e+04 	1.318685e+09 	1.291767e+01 	7.879120e+38 	
1.201806e+06 	1.311624e+04 	1.316702e+09 	1.304684e+01 	7.878851e+38 	
1.201828e+06 	1.298585e+04 	1.314724e+09 	1.317729e+01 	7.878580e+38 	
1.201850e+06 	1.285675e+04 	1.312753e+09 	1.330905e+01 	7.878308e+38 	
1.201873e+06 	1.272893e+04 	1.310788e+09 	1.344212e+01 	7.878034e+38 	
1.201895e+06 	1.260239e+04 	1.308828e+09 	1.357653e+01 	7.877760e+38 	
1.201917e+06 	1.247710e+04 	1.306875e+09 	1.371228e+01 	7.877483e+38 	
1.201940e+06 	1.235306e+04 	1.304927e+09 	1.384938e+01 	7.877206e+38 	
1.201962e+06 	1.223025e+04 	1.302985e+09 	1.398785e+01 	7.876927e+38 	
1.201985e+06 	1.210866e+04 	1.301050e+09 	1.412771e+01 	7.876646e+38 	
1.202007e+06 	1.198828e+04 	1.299119e+09 	1.426896e+01 	7.876365e+38 	
1.202030e+06 	1.186910e+04 	1.297195e+09 	1.441163e+01 	7.876081e+38 	
1.202053e+06 	1.175111e+04 	1.295277e+09 	1.455572e+01 	7.875797e+38 	
1.202075e+06 	1.163428e+04 	1.293364e+09 	1.470125e+01 	7.875511e+38 	
1.202098e+06 	1.151862e+04 	1.291457e+09 	1.484824e+01 	7.875223e+38 	
1.202121e+06 	1.140411e+04 	1.289555e+09 	1.499669e+01 	7.874934e+38 	
1.202144e+06 	1.129073e+04 	1.287660e+09 	1.514663e+01 	7.874644e+38 	
1.202167e+06 	1.117848e+04 	1.285770e+09 	1.529806e+01 	7.874352e+38 	
1.202189e+06 	1.106735e+04 	1.283886e+09 	1.545101e+01 	7.874059e+38 	
1.202212e+06 	1.095733e+04 	1.282007e+09 	1.560548e+01 	7.873764e+38 	
1.202235e+06 	1.084839e+04 	1.280134e+09 	1.576150e+01 	7.873467e+38 	
1.202258e+06 	1.074055e+04 	1.278267e+09 	1.591908e+01 	7.873169e+38 	
1.202281e+06 	1.063377e+04 	1.276406e+09 	1.607823e+01 	7.872870e+38 	
1.202305e+06 	1.052805e+04 	1.274549e+09 	1.623897e+01 	7.872569e+38 	
1.202328e+06 	1.042339e+04 	1.272699e+09 	1.640132e+01 	7.872267e+38 	
1.202351e+06 	1.031976e+04 	1.270854e+09 	1.656528e+01 	7.871963e+38 	
1.202374e+06 	1.021717e+04 	1.269014e+09 	1.673089e+01 	7.871657e+38 	
1.202397e+06 	1.011559e+04 	1.267181e+09 	1.689815e+01 	7.871350e+38 	
1.202421e+06 	1.001503e+04 	1.265352e+09 	1.706708e+01 	7.871041e+38 	
1.202444e+06 	9.915465e+03 	1.263529e+09 	1.723770e+01 	7.870731e+38 	
1.202467e+06 	9.816890e+03 	1.261712e+09 	1.741002e+01 	7.870419e+38 	
1.202491e+06 	9.719295e+03 	1.259900e+09 	1.758407e+01 	7.870105e+38 	
1.202514e+06 	9.622671e+03 	1.258093e+09 	1.775985e+01 	7.869790e+38 	
1.202538e+06 	9.527007e+03 	1.256292e+09 	1.793739e+01 	7.869473e+38 	
1.202561e+06 	9.432294e+03 	1.254496e+09 	1.811670e+01 	7.869154e+38 	
1.202585e+06 	9.338522e+03 	1.252706e+09 	1.829780e+01 	7.868834e+38 	
1.202609e+06 	9.245683e+03 	1.250921e+09 	1.848071e+01 	7.868512e+38 	
1.202632e+06 	9.153767e+03 	1.249141e+09 	1.866545e+01 	7.868189e+38 	
1.202656e+06 	9.062764e+03 	1.247367e+09 	1.885203e+01 	7.867864e+38 	
1.202680e+06 	8.972667e+03 	1.245598e+09 	1.904048e+01 	7.867537e+38 	
1.202704e+06 	8.883465e+03 	1.243834e+09 	1.923081e+01 	7.867208e+38 	
1.202728e+06 	8.795150e+03 	1.242075e+09 	1.942304e+01 	7.866878e+38 	
1.202752e+06 	8.707712e+03 	1.240322e+09 	1.961719e+01 	7.866546e+38 	
1.202776e+06 	8.621144e+03 	1.238574e+09 	1.981328e+01 	7.866212e+38 	
1.202800e+06 	8.535437e+03 	1.236831e+09 	2.001132e+01 	7.865876e+38 	
1.202824e+06 	8.450582e+03 	1.235094e+09 	2.021135e+01 	7.865539e+38 	
1.202848e+06 	8.366570e+03 	1.233361e+09 	2.041337e+01 	7.865199e+38 	
1.202872e+06 	8.283394e+03 	1.231634e+09 	2.061741e+01 	7.864858e+38 	
1.202896e+06 	8.201044e+03 	1.229912e+09 	2.082348e+01 	7.864515e+38 	
1.202921e+06 	8.119513e+03 	1.228195e+09 	2.103162e+01 	7.864171e+38 	
1.202945e+06 	8.038793e+03 	1.226483e+09 	2.124183e+01 	7.863824e+38 	
1.202969e+06 	7.958875e+03 	1.224776e+09 	2.145414e+01 	7.863476e+38 	
1.202994e+06 	7.879752e+03 	1.223075e+09 	2.166857e+01 	7.863126e+38 	
1.203018e+06 	7.801415e+03 	1.221378e+09 	2.188515e+01 	7.862773e+38 	
1.203043e+06 	7.723857e+03 	1.219686e+09 	2.210388e+01 	7.862419e+38 	
1.203067e+06 	7.647070e+03 	1.218000e+09 	2.232480e+01 	7.862064e+38 	
1.203092e+06 	7.571046e+03 	1.216318e+09 	2.254793e+01 	7.861706e+38 	
1.203117e+06 	7.495779e+03 	1.214642e+09 	2.277328e+01 	7.861346e+38 	
1.203142e+06 	7.421259e+03 	1.212970e+09 	2.300088e+01 	7.860984e+38 	
1.203166e+06 	7.347480e+03 	1.211303e+09 	2.323076e+01 	7.860621e+38 	
1.203191e+06 	7.274435e+03 	1.209642e+09 	2.346293e+01 	7.860255e+38 	
1.203216e+06 	7.202116e+03 	1.207985e+09 	2.369742e+01 	7.859887e+38 	
1.203241e+06 	7.130516e+03 	1.206333e+09 	2.393425e+01 	7.859518e+38 	
1.203266e+06 	7.059628e+03 	1.204686e+09 	2.417344e+01 	7.859146e+38 	
1.203291e+06 	6.989445e+03 	1.203044e+09 	2.441503e+01 	7.858772e+38 	
1.203316e+06 	6.919959e+03 	1.201407e+09 	2.465902e+01 	7.858397e+38 	
1.203342e+06 	6.851164e+03 	1.199775e+09 	2.490545e+01 	7.858019e+38 	
1.203367e+06 	6.783053e+03 	1.198147e+09 	2.515434e+01 	7.857639e+38 	
1.203392e+06 	6.715619e+03 	1.196524e+09 	2.540571e+01 	7.857257e+38 	
1.203417e+06 	6.648855e+03 	1.194906e+09 	2.565960e+01 	7.856873e+38 	
1.203443e+06 	6.582756e+03 	1.193293e+09 	2.591601e+01 	7.856487e+38 	
1.203468e+06 	6.517313e+03 	1.191684e+09 	2.617499e+01 	7.856099e+38 	
1.203494e+06 	6.452521e+03 	1.190081e+09 	2.643655e+01 	7.855709e+38 	
1.203519e+06 	6.388373e+03 	1.188482e+09 	2.670073e+01 	7.855316e+38 	
1.203545e+06 	6.324863e+03 	1.186887e+09 	2.696754e+01 	7.854921e+38 	
1.203571e+06 	6.261984e+03 	1.185298e+09 	2.723701e+01 	7.854525e+38 	
1.203597e+06 	6.199730e+03 	1.183713e+09 	2.750917e+01 	7.854126e+38 	
1.203622e+06 	6.138096e+03 	1.182133e+09 	2.778405e+01 	7.853724e+38 	
1.203648e+06 	6.077074e+03 	1.180557e+09 	2.806168e+01 	7.853321e+38 	
1.203674e+06 	6.016658e+03 	1.178986e+09 	2.834207e+01 	7.852915e+38 	
1.203700e+06 	5.956843e+03 	1.177419e+09 	2.862526e+01 	7.852507e+38 	
1.203726e+06 	5.897623e+03 	1.175857e+09 	2.891128e+01 	7.852097e+38 	
1.203753e+06 	5.838992e+03 	1.174300e+09 	2.920015e+01 	7.851684e+38 	
1.203779e+06 	5.780943e+03 	1.172747e+09 	2.949191e+01 	7.851269e+38 	
1.203805e+06 	5.723472e+03 	1.171199e+09 	2.978658e+01 	7.850852e+38 	
1.203831e+06 	5.666572e+03 	1.169655e+09 	3.008419e+01 	7.850433e+38 	
1.203858e+06 	5.610238e+03 	1.168116e+09 	3.038476e+01 	7.850011e+38 	
1.203884e+06 	5.554463e+03 	1.166582e+09 	3.068834e+01 	7.849587e+38 	
1.203911e+06 	5.499243e+03 	1.165051e+09 	3.099495e+01 	7.849160e+38 	
1.203937e+06 	5.444573e+03 	1.163526e+09 	3.130461e+01 	7.848731e+38 	
1.203964e+06 	5.390445e+03 	1.162004e+09 	3.161737e+01 	7.848300e+38 	
1.203991e+06 	5.336856e+03 	1.160487e+09 	3.193325e+01 	7.847866e+38 	
1.204017e+06 	5.283799e+03 	1.158975e+09 	3.225228e+01 	7.847430e+38 	
1.204044e+06 	5.231270e+03 	1.157466e+09 	3.257449e+01 	7.846991e+38 	
1.204071e+06 	5.179264e+03 	1.155962e+09 	3.289991e+01 	7.846550e+38 	
1.204098e+06 	5.127774e+03 	1.154463e+09 	3.322859e+01 	7.846106e+38 	
1.204125e+06 	5.076796e+03 	1.152968e+09 	3.356054e+01 	7.845660e+38 	
1.204152e+06 	5.026325e+03 	1.151477e+09 	3.389581e+01 	7.845211e+38 	
1.204180e+06 	4.976356e+03 	1.149991e+09 	3.423442e+01 	7.844760e+38 	
1.204207e+06 	4.926883e+03 	1.148508e+09 	3.457640e+01 	7.844306e+38 	
1.204234e+06 	4.877902e+03 	1.147031e+09 	3.492180e+01 	7.843849e+38 	
1.204262e+06 	4.829408e+03 	1.145557e+09 	3.527065e+01 	7.843390e+38 	
1.204289e+06 	4.781397e+03 	1.144087e+09 	3.562297e+01 	7.842929e+38 	
1.204317e+06 	4.733862e+03 	1.142622e+09 	3.597881e+01 	7.842464e+38 	
1.204344e+06 	4.686801e+03 	1.141161e+09 	3.633820e+01 	7.841997e+38 	
1.204372e+06 	4.640207e+03 	1.139704e+09 	3.670118e+01 	7.841528e+38 	
1.204400e+06 	4.594076e+03 	1.138251e+09 	3.706777e+01 	7.841055e+38 	
1.204428e+06 	4.548404e+03 	1.136803e+09 	3.743802e+01 	7.840580e+38 	
1.204455e+06 	4.503186e+03 	1.135358e+09 	3.781197e+01 	7.840102e+38 	
1.204483e+06 	4.458417e+03 	1.133918e+09 	3.818964e+01 	7.839622e+38 	
1.204511e+06 	4.414094e+03 	1.132482e+09 	3.857108e+01 	7.839139e+38 	
1.204540e+06 	4.370211e+03 	1.131050e+09 	3.895633e+01 	7.838653e+38 	
1.204568e+06 	4.326764e+03 	1.129622e+09 	3.934542e+01 	7.838164e+38 	
1.204596e+06 	4.283750e+03 	1.128198e+09 	3.973838e+01 	7.837672e+38 	
1.204625e+06 	4.241163e+03 	1.126778e+09 	4.013527e+01 	7.837177e+38 	
1.204653e+06 	4.198999e+03 	1.125362e+09 	4.053612e+01 	7.836680e+38 	
1.204681e+06 	4.157254e+03 	1.123950e+09 	4.094096e+01 	7.836180e+38 	
1.204710e+06 	4.115925e+03 	1.122542e+09 	4.134984e+01 	7.835677e+38 	
1.204739e+06 	4.075006e+03 	1.121138e+09 	4.176280e+01 	7.835171e+38 	
1.204768e+06 	4.034495e+03 	1.119738e+09 	4.217987e+01 	7.834662e+38 	
1.204796e+06 	3.994386e+03 	1.118342e+09 	4.260111e+01 	7.834150e+38 	
1.204825e+06 	3.954675e+03 	1.116949e+09 	4.302654e+01 	7.833635e+38 	
1.204854e+06 	3.915360e+03 	1.115561e+09 	4.345622e+01 	7.833117e+38 	
1.204883e+06 	3.876435e+03 	1.114177e+09 	4.389018e+01 	7.832596e+38 	
1.204913e+06 	3.837897e+03 	1.112796e+09 	4.432846e+01 	7.832072e+38 	
1.204942e+06 	3.799743e+03 	1.111420e+09 	4.477112e+01 	7.831545e+38 	
1.204971e+06 	3.761968e+03 	1.110047e+09 	4.521819e+01 	7.831015e+38 	
1.205001e+06 	3.724568e+03 	1.108678e+09 	4.566972e+01 	7.830481e+38 	
1.205030e+06 	3.687540e+03 	1.107312e+09 	4.612575e+01 	7.829945e+38 	
1.205060e+06 	3.650880e+03 	1.105951e+09 	4.658632e+01 	7.829406e+38 	
1.205089e+06 	3.614585e+03 	1.104593e+09 	4.705149e+01 	7.828863e+38 	
1.205119e+06 	3.578651e+03 	1.103240e+09 	4.752129e+01 	7.828317e+38 	
1.205149e+06 	3.543073e+03 	1.101890e+09 	4.799578e+01 	7.827768e+38 	
1.205179e+06 	3.507850e+03 	1.100543e+09 	4.847499e+01 	7.827216e+38 	
1.205209e+06 	3.472976e+03 	1.099201e+09 	4.895899e+01 	7.826660e+38 	
1.205239e+06 	3.438450e+03 	1.097862e+09 	4.944780e+01 	7.826101e+38 	
1.205269e+06 	3.404266e+03 	1.096526e+09 	4.994149e+01 	7.825539e+38 	
1.205300e+06 	3.370423e+03 	1.095195e+09 	5.044010e+01 	7.824974e+38 	
1.205330e+06 	3.336915e+03 	1.093867e+09 	5.094368e+01 	7.824405e+38 	
1.205361e+06 	3.303741e+03 	1.092542e+09 	5.145228e+01 	7.823833e+38 	
1.205391e+06 	3.270897e+03 	1.091221e+09 	5.196594e+01 	7.823258e+38 	
1.205422e+06 	3.238379e+03 	1.089904e+09 	5.248473e+01 	7.822679e+38 	
1.205453e+06 	3.206185e+03 	1.088591e+09 	5.300868e+01 	7.822097e+38 	
1.205484e+06 	3.174311e+03 	1.087281e+09 	5.353786e+01 	7.821511e+38 	
1.205514e+06 	3.142753e+03 	1.085974e+09 	5.407231e+01 	7.820922e+38 	
1.205546e+06 	3.111509e+03 	1.084672e+09 	5.461208e+01 	7.820329e+38 	
1.205577e+06 	3.080576e+03 	1.083372e+09 	5.515723e+01 	7.819733e+38 	
1.205608e+06 	3.049951e+03 	1.082076e+09 	5.570782e+01 	7.819133e+38 	
1.205639e+06 	3.019629e+03 	1.080784e+09 	5.626389e+01 	7.818530e+38 	
1.205671e+06 	2.989610e+03 	1.079495e+09 	5.682550e+01 	7.817923e+38 	
1.205702e+06 	2.959888e+03 	1.078209e+09 	5.739271e+01 	7.817312e+38 	
1.205734e+06 	2.930463e+03 	1.076927e+09 	5.796556e+01 	7.816698e+38 	
1.205766e+06 	2.901329e+03 	1.075649e+09 	5.854413e+01 	7.816080e+38 	
1.205798e+06 	2.872486e+03 	1.074373e+09 	5.912845e+01 	7.815459e+38 	
1.205830e+06 	2.843929e+03 	1.073102e+09 	5.971860e+01 	7.814834e+38 	
1.205862e+06 	2.815656e+03 	1.071833e+09 	6.031463e+01 	7.814205e+38 	
1.205894e+06 	2.787664e+03 	1.070568e+09 	6.091659e+01 	7.813572e+38 	
1.205926e+06 	2.759950e+03 	1.069307e+09 	6.152455e+01 	7.812936e+38 	
1.205958e+06 	2.732512e+03 	1.068048e+09 	6.213857e+01 	7.812295e+38 	
1.205991e+06 	2.705347e+03 	1.066793e+09 	6.275870e+01 	7.811651e+38 	
1.206023e+06 	2.678452e+03 	1.065541e+09 	6.338500e+01 	7.811003e+38 	
1.206056e+06 	2.651824e+03 	1.064293e+09 	6.401755e+01 	7.810351e+38 	
1.206089e+06 	2.625460e+03 	1.063048e+09 	6.465639e+01 	7.809696e+38 	
1.206122e+06 	2.599359e+03 	1.061806e+09 	6.530159e+01 	7.809036e+38 	
1.206155e+06 	2.573518e+03 	1.060567e+09 	6.595323e+01 	7.808372e+38 	
1.206188e+06 	2.547933e+03 	1.059331e+09 	6.661134e+01 	7.807705e+38 	
1.206221e+06 	2.522603e+03 	1.058099e+09 	6.727602e+01 	7.807033e+38 	
1.206255e+06 	2.497524e+03 	1.056870e+09 	6.794731e+01 	7.806357e+38 	
1.206288e+06 	2.472695e+03 	1.055644e+09 	6.862528e+01 	7.805678e+38 	
1.206322e+06 	2.448113e+03 	1.054421e+09 	6.931001e+01 	7.804994e+38 	
1.206355e+06 	2.423775e+03 	1.053202e+09 	7.000155e+01 	7.804306e+38 	
1.206389e+06 	2.399679e+03 	1.051985e+09 	7.069998e+01 	7.803614e+38 	
1.206423e+06 	2.375822e+03 	1.050771e+09 	7.140535e+01 	7.802917e+38 	
1.206457e+06 	2.352203e+03 	1.049561e+09 	7.211775e+01 	7.802217e+38 	
1.206491e+06 	2.328818e+03 	1.048354e+09 	7.283725e+01 	7.801512e+38 	
1.206526e+06 	2.305666e+03 	1.047150e+09 	7.356390e+01 	7.800803e+38 	
1.206560e+06 	2.282745e+03 	1.045948e+09 	7.429779e+01 	7.800090e+38 	
1.206594e+06 	2.260051e+03 	1.044750e+09 	7.503898e+01 	7.799372e+38 	
1.206629e+06 	2.237582e+03 	1.043555e+09 	7.578755e+01 	7.798650e+38 	
1.206664e+06 	2.215337e+03 	1.042363e+09 	7.654357e+01 	7.797924e+38 	
1.206699e+06 	2.193313e+03 	1.041174e+09 	7.730711e+01 	7.797193e+38 	
1.206734e+06 	2.171509e+03 	1.039988e+09 	7.807826e+01 	7.796458e+38 	
1.206769e+06 	2.149920e+03 	1.038805e+09 	7.885707e+01 	7.795718e+38 	
1.206804e+06 	2.128547e+03 	1.037624e+09 	7.964364e+01 	7.794974e+38 	
1.206840e+06 	2.107386e+03 	1.036447e+09 	8.043803e+01 	7.794226e+38 	
1.206875e+06 	2.086435e+03 	1.035273e+09 	8.124033e+01 	7.793472e+38 	
1.206911e+06 	2.065693e+03 	1.034101e+09 	8.205060e+01 	7.792715e+38 	
1.206946e+06 	2.045157e+03 	1.032932e+09 	8.286894e+01 	7.791952e+38 	
1.206982e+06 	2.024825e+03 	1.031767e+09 	8.369543e+01 	7.791186e+38 	
1.207018e+06 	2.004695e+03 	1.030604e+09 	8.453013e+01 	7.790414e+38 	
1.207055e+06 	1.984765e+03 	1.029444e+09 	8.537314e+01 	7.789638e+38 	
1.207091e+06 	1.965034e+03 	1.028286e+09 	8.622453e+01 	7.788857e+38 	
1.207127e+06 	1.945498e+03 	1.027132e+09 	8.708440e+01 	7.788071e+38 	
1.207164e+06 	1.926157e+03 	1.025980e+09 	8.795281e+01 	7.787280e+38 	
1.207201e+06 	1.907008e+03 	1.024831e+09 	8.882987e+01 	7.786485e+38 	
