r (cm)      	rho (g/cm3) 	T (K)       	u (cm/s)    	L* (erg/s)  			 Edot= 3.938820e+39
1.200000e+06 	6.631060e+03 	1.572059e+09 	4.104030e+01 	1.015618e+39 	
1.200056e+06 	6.569141e+03 	1.570345e+09 	4.142277e+01 	1.015433e+39 	
1.200112e+06 	6.507800e+03 	1.568633e+09 	4.180879e+01 	1.015246e+39 	
1.200168e+06 	6.447033e+03 	1.566924e+09 	4.219839e+01 	1.015059e+39 	
1.200224e+06 	6.386832e+03 	1.565218e+09 	4.259161e+01 	1.014870e+39 	
1.200281e+06 	6.327194e+03 	1.563515e+09 	4.298847e+01 	1.014681e+39 	
1.200338e+06 	6.268113e+03 	1.561814e+09 	4.338901e+01 	1.014490e+39 	
1.200395e+06 	6.209583e+03 	1.560117e+09 	4.379326e+01 	1.014299e+39 	
1.200452e+06 	6.151600e+03 	1.558423e+09 	4.420126e+01 	1.014106e+39 	
1.200510e+06 	6.094158e+03 	1.556731e+09 	4.461304e+01 	1.013913e+39 	
1.200568e+06 	6.037253e+03 	1.555042e+09 	4.502864e+01 	1.013718e+39 	
1.200626e+06 	5.980879e+03 	1.553356e+09 	4.544809e+01 	1.013523e+39 	
1.200684e+06 	5.925031e+03 	1.551673e+09 	4.587143e+01 	1.013326e+39 	
1.200743e+06 	5.869705e+03 	1.549992e+09 	4.629869e+01 	1.013128e+39 	
1.200801e+06 	5.814896e+03 	1.548314e+09 	4.672991e+01 	1.012930e+39 	
1.200860e+06 	5.760598e+03 	1.546639e+09 	4.716513e+01 	1.012730e+39 	
1.200920e+06 	5.706807e+03 	1.544967e+09 	4.760437e+01 	1.012529e+39 	
1.200979e+06 	5.653519e+03 	1.543297e+09 	4.804769e+01 	1.012327e+39 	
1.201039e+06 	5.600728e+03 	1.541630e+09 	4.849511e+01 	1.012124e+39 	
1.201099e+06 	5.548430e+03 	1.539965e+09 	4.894667e+01 	1.011920e+39 	
1.201159e+06 	5.496621e+03 	1.538303e+09 	4.940242e+01 	1.011715e+39 	
1.201219e+06 	5.445295e+03 	1.536644e+09 	4.986239e+01 	1.011509e+39 	
1.201280e+06 	5.394449e+03 	1.534987e+09 	5.032661e+01 	1.011302e+39 	
1.201341e+06 	5.344077e+03 	1.533333e+09 	5.079513e+01 	1.011094e+39 	
1.201402e+06 	5.294176e+03 	1.531681e+09 	5.126799e+01 	1.010884e+39 	
1.201464e+06 	5.244740e+03 	1.530032e+09 	5.174523e+01 	1.010674e+39 	
1.201526e+06 	5.195767e+03 	1.528385e+09 	5.222689e+01 	1.010462e+39 	
1.201588e+06 	5.147250e+03 	1.526741e+09 	5.271300e+01 	1.010249e+39 	
1.201650e+06 	5.099187e+03 	1.525099e+09 	5.320361e+01 	1.010035e+39 	
1.201713e+06 	5.051572e+03 	1.523459e+09 	5.369876e+01 	1.009821e+39 	
1.201775e+06 	5.004402e+03 	1.521822e+09 	5.419849e+01 	1.009604e+39 	
1.201839e+06 	4.957673e+03 	1.520187e+09 	5.470284e+01 	1.009387e+39 	
1.201902e+06 	4.911379e+03 	1.518555e+09 	5.521186e+01 	1.009169e+39 	
1.201966e+06 	4.865519e+03 	1.516925e+09 	5.572559e+01 	1.008949e+39 	
1.202030e+06 	4.820086e+03 	1.515297e+09 	5.624406e+01 	1.008729e+39 	
1.202094e+06 	4.775077e+03 	1.513672e+09 	5.676734e+01 	1.008507e+39 	
1.202158e+06 	4.730489e+03 	1.512049e+09 	5.729545e+01 	1.008284e+39 	
1.202223e+06 	4.686317e+03 	1.510428e+09 	5.782844e+01 	1.008060e+39 	
1.202288e+06 	4.642558e+03 	1.508809e+09 	5.836636e+01 	1.007834e+39 	
1.202353e+06 	4.599207e+03 	1.507193e+09 	5.890925e+01 	1.007608e+39 	
1.202419e+06 	4.556261e+03 	1.505579e+09 	5.945716e+01 	1.007380e+39 	
1.202485e+06 	4.513716e+03 	1.503967e+09 	6.001013e+01 	1.007151e+39 	
1.202551e+06 	4.471569e+03 	1.502357e+09 	6.056821e+01 	1.006921e+39 	
1.202618e+06 	4.429815e+03 	1.500749e+09 	6.113145e+01 	1.006690e+39 	
1.202685e+06 	4.388450e+03 	1.499143e+09 	6.169990e+01 	1.006458e+39 	
1.202752e+06 	4.347472e+03 	1.497540e+09 	6.227359e+01 	1.006224e+39 	
1.202819e+06 	4.306877e+03 	1.495938e+09 	6.285258e+01 	1.005989e+39 	
1.202887e+06 	4.266661e+03 	1.494339e+09 	6.343692e+01 	1.005753e+39 	
1.202955e+06 	4.226820e+03 	1.492742e+09 	6.402666e+01 	1.005516e+39 	
1.203023e+06 	4.187351e+03 	1.491146e+09 	6.462183e+01 	1.005277e+39 	
1.203092e+06 	4.148251e+03 	1.489553e+09 	6.522251e+01 	1.005038e+39 	
1.203161e+06 	4.109516e+03 	1.487961e+09 	6.582873e+01 	1.004797e+39 	
1.203230e+06 	4.071143e+03 	1.486372e+09 	6.644054e+01 	1.004554e+39 	
1.203300e+06 	4.033128e+03 	1.484784e+09 	6.705800e+01 	1.004311e+39 	
1.203370e+06 	3.995468e+03 	1.483199e+09 	6.768116e+01 	1.004066e+39 	
1.203440e+06 	3.958159e+03 	1.481615e+09 	6.831007e+01 	1.003820e+39 	
1.203511e+06 	3.921199e+03 	1.480033e+09 	6.894478e+01 	1.003573e+39 	
1.203582e+06 	3.884584e+03 	1.478453e+09 	6.958535e+01 	1.003324e+39 	
1.203653e+06 	3.848311e+03 	1.476875e+09 	7.023182e+01 	1.003075e+39 	
1.203725e+06 	3.812377e+03 	1.475299e+09 	7.088426e+01 	1.002823e+39 	
1.203797e+06 	3.776778e+03 	1.473724e+09 	7.154271e+01 	1.002571e+39 	
1.203869e+06 	3.741512e+03 	1.472152e+09 	7.220723e+01 	1.002317e+39 	
1.203942e+06 	3.706575e+03 	1.470580e+09 	7.287788e+01 	1.002062e+39 	
1.204015e+06 	3.671964e+03 	1.469011e+09 	7.355471e+01 	1.001806e+39 	
1.204088e+06 	3.637676e+03 	1.467444e+09 	7.423778e+01 	1.001549e+39 	
1.204162e+06 	3.603709e+03 	1.465878e+09 	7.492714e+01 	1.001290e+39 	
1.204236e+06 	3.570058e+03 	1.464314e+09 	7.562286e+01 	1.001030e+39 	
1.204310e+06 	3.536722e+03 	1.462751e+09 	7.632498e+01 	1.000768e+39 	
1.204385e+06 	3.503698e+03 	1.461190e+09 	7.703357e+01 	1.000505e+39 	
1.204460e+06 	3.470981e+03 	1.459631e+09 	7.774869e+01 	1.000241e+39 	
1.204536e+06 	3.438570e+03 	1.458073e+09 	7.847040e+01 	9.999756e+38 	
1.204611e+06 	3.406462e+03 	1.456517e+09 	7.919875e+01 	9.997088e+38 	
1.204688e+06 	3.374653e+03 	1.454963e+09 	7.993380e+01 	9.994406e+38 	
1.204764e+06 	3.343142e+03 	1.453410e+09 	8.067562e+01 	9.991710e+38 	
1.204841e+06 	3.311925e+03 	1.451858e+09 	8.142427e+01 	9.989001e+38 	
1.204919e+06 	3.280999e+03 	1.450308e+09 	8.217981e+01 	9.986278e+38 	
1.204996e+06 	3.250362e+03 	1.448760e+09 	8.294230e+01 	9.983542e+38 	
1.205074e+06 	3.220011e+03 	1.447212e+09 	8.371180e+01 	9.980792e+38 	
1.205153e+06 	3.189944e+03 	1.445667e+09 	8.448839e+01 	9.978028e+38 	
1.205232e+06 	3.160157e+03 	1.444123e+09 	8.527212e+01 	9.975250e+38 	
1.205311e+06 	3.130649e+03 	1.442580e+09 	8.606305e+01 	9.972458e+38 	
1.205391e+06 	3.101416e+03 	1.441038e+09 	8.686126e+01 	9.969652e+38 	
1.205471e+06 	3.072455e+03 	1.439498e+09 	8.766680e+01 	9.966833e+38 	
1.205551e+06 	3.043766e+03 	1.437960e+09 	8.847975e+01 	9.963999e+38 	
1.205632e+06 	3.015344e+03 	1.436422e+09 	8.930017e+01 	9.961151e+38 	
1.205714e+06 	2.987188e+03 	1.434886e+09 	9.012813e+01 	9.958289e+38 	
1.205795e+06 	2.959294e+03 	1.433351e+09 	9.096369e+01 	9.955413e+38 	
1.205877e+06 	2.931661e+03 	1.431818e+09 	9.180694e+01 	9.952523e+38 	
1.205960e+06 	2.904286e+03 	1.430285e+09 	9.265793e+01 	9.949618e+38 	
1.206043e+06 	2.877167e+03 	1.428754e+09 	9.351673e+01 	9.946699e+38 	
1.206126e+06 	2.850301e+03 	1.427225e+09 	9.438342e+01 	9.943766e+38 	
1.206210e+06 	2.823686e+03 	1.425696e+09 	9.525807e+01 	9.940818e+38 	
1.206294e+06 	2.797319e+03 	1.424168e+09 	9.614074e+01 	9.937855e+38 	
1.206379e+06 	2.771199e+03 	1.422642e+09 	9.703152e+01 	9.934878e+38 	
1.206464e+06 	2.745322e+03 	1.421117e+09 	9.793046e+01 	9.931887e+38 	
1.206550e+06 	2.719687e+03 	1.419592e+09 	9.883766e+01 	9.928881e+38 	
1.206636e+06 	2.694292e+03 	1.418069e+09 	9.975318e+01 	9.925860e+38 	
1.206722e+06 	2.669133e+03 	1.416547e+09 	1.006771e+02 	9.922824e+38 	
1.206809e+06 	2.644210e+03 	1.415026e+09 	1.016095e+02 	9.919774e+38 	
1.206897e+06 	2.619519e+03 	1.413506e+09 	1.025504e+02 	9.916708e+38 	
1.206985e+06 	2.595059e+03 	1.411988e+09 	1.035000e+02 	9.913628e+38 	
1.207073e+06 	2.570827e+03 	1.410470e+09 	1.044583e+02 	9.910533e+38 	
1.207162e+06 	2.546821e+03 	1.408953e+09 	1.054253e+02 	9.907423e+38 	
1.207251e+06 	2.523040e+03 	1.407437e+09 	1.064012e+02 	9.904298e+38 	
1.207341e+06 	2.499480e+03 	1.405922e+09 	1.073861e+02 	9.901158e+38 	
1.207431e+06 	2.476141e+03 	1.404408e+09 	1.083799e+02 	9.898003e+38 	
1.207521e+06 	2.453020e+03 	1.402894e+09 	1.093829e+02 	9.894832e+38 	
1.207613e+06 	2.430114e+03 	1.401382e+09 	1.103950e+02 	9.891647e+38 	
1.207704e+06 	2.407422e+03 	1.399870e+09 	1.114165e+02 	9.888446e+38 	
1.207796e+06 	2.384943e+03 	1.398360e+09 	1.124472e+02 	9.885230e+38 	
1.207889e+06 	2.362673e+03 	1.396850e+09 	1.134874e+02 	9.881998e+38 	
1.207982e+06 	2.340611e+03 	1.395341e+09 	1.145371e+02 	9.878751e+38 	
1.208076e+06 	2.318755e+03 	1.393833e+09 	1.155965e+02 	9.875489e+38 	
1.208170e+06 	2.297103e+03 	1.392325e+09 	1.166655e+02 	9.872211e+38 	
1.208265e+06 	2.275654e+03 	1.390819e+09 	1.177443e+02 	9.868918e+38 	
1.208360e+06 	2.254404e+03 	1.389313e+09 	1.188329e+02 	9.865609e+38 	
1.208456e+06 	2.233353e+03 	1.387807e+09 	1.199315e+02 	9.862285e+38 	
1.208552e+06 	2.212499e+03 	1.386303e+09 	1.210401e+02 	9.858944e+38 	
1.208649e+06 	2.191839e+03 	1.384799e+09 	1.221589e+02 	9.855589e+38 	
1.208746e+06 	2.171373e+03 	1.383295e+09 	1.232879e+02 	9.852217e+38 	
1.208844e+06 	2.151097e+03 	1.381793e+09 	1.244272e+02 	9.848830e+38 	
1.208942e+06 	2.131011e+03 	1.380291e+09 	1.255769e+02 	9.845427e+38 	
1.209041e+06 	2.111112e+03 	1.378790e+09 	1.267371e+02 	9.842008e+38 	
1.209140e+06 	2.091399e+03 	1.377289e+09 	1.279078e+02 	9.838573e+38 	
1.209240e+06 	2.071870e+03 	1.375788e+09 	1.290893e+02 	9.835122e+38 	
1.209341e+06 	2.052524e+03 	1.374289e+09 	1.302815e+02 	9.831655e+38 	
1.209442e+06 	2.033358e+03 	1.372789e+09 	1.314847e+02 	9.828173e+38 	
1.209544e+06 	2.014371e+03 	1.371291e+09 	1.326988e+02 	9.824674e+38 	
1.209646e+06 	1.995562e+03 	1.369793e+09 	1.339239e+02 	9.821159e+38 	
1.209749e+06 	1.976928e+03 	1.368295e+09 	1.351603e+02 	9.817628e+38 	
1.209852e+06 	1.958468e+03 	1.366798e+09 	1.364079e+02 	9.814081e+38 	
1.209956e+06 	1.940180e+03 	1.365301e+09 	1.376668e+02 	9.810517e+38 	
1.210061e+06 	1.922063e+03 	1.363804e+09 	1.389373e+02 	9.806938e+38 	
1.210166e+06 	1.904116e+03 	1.362308e+09 	1.402193e+02 	9.803342e+38 	
1.210272e+06 	1.886336e+03 	1.360813e+09 	1.415130e+02 	9.799730e+38 	
1.210378e+06 	1.868722e+03 	1.359318e+09 	1.428185e+02 	9.796101e+38 	
1.210485e+06 	1.851272e+03 	1.357823e+09 	1.441358e+02 	9.792456e+38 	
1.210593e+06 	1.833986e+03 	1.356328e+09 	1.454651e+02 	9.788795e+38 	
1.210701e+06 	1.816860e+03 	1.354834e+09 	1.468066e+02 	9.785117e+38 	
1.210810e+06 	1.799895e+03 	1.353340e+09 	1.481602e+02 	9.781423e+38 	
1.210919e+06 	1.783088e+03 	1.351846e+09 	1.495261e+02 	9.777713e+38 	
1.211029e+06 	1.766438e+03 	1.350353e+09 	1.509045e+02 	9.773985e+38 	
1.211140e+06 	1.749944e+03 	1.348859e+09 	1.522954e+02 	9.770242e+38 	
1.211252e+06 	1.733603e+03 	1.347367e+09 	1.536989e+02 	9.766481e+38 	
1.211364e+06 	1.717416e+03 	1.345874e+09 	1.551152e+02 	9.762704e+38 	
1.211476e+06 	1.701379e+03 	1.344381e+09 	1.565443e+02 	9.758911e+38 	
1.211590e+06 	1.685492e+03 	1.342889e+09 	1.579865e+02 	9.755100e+38 	
1.211704e+06 	1.669753e+03 	1.341396e+09 	1.594417e+02 	9.751273e+38 	
1.211818e+06 	1.654162e+03 	1.339904e+09 	1.609101e+02 	9.747430e+38 	
1.211933e+06 	1.638716e+03 	1.338412e+09 	1.623918e+02 	9.743569e+38 	
1.212049e+06 	1.623414e+03 	1.336921e+09 	1.638870e+02 	9.739692e+38 	
1.212166e+06 	1.608255e+03 	1.335429e+09 	1.653958e+02 	9.735798e+38 	
1.212283e+06 	1.593238e+03 	1.333937e+09 	1.669182e+02 	9.731887e+38 	
1.212402e+06 	1.578360e+03 	1.332446e+09 	1.684545e+02 	9.727959e+38 	
1.212520e+06 	1.563622e+03 	1.330954e+09 	1.700046e+02 	9.724014e+38 	
1.212640e+06 	1.549022e+03 	1.329462e+09 	1.715688e+02 	9.720052e+38 	
1.212760e+06 	1.534557e+03 	1.327971e+09 	1.731472e+02 	9.716074e+38 	
1.212881e+06 	1.520228e+03 	1.326479e+09 	1.747398e+02 	9.712078e+38 	
1.213002e+06 	1.506033e+03 	1.324987e+09 	1.763469e+02 	9.708066e+38 	
1.213125e+06 	1.491970e+03 	1.323496e+09 	1.779685e+02 	9.704036e+38 	
1.213248e+06 	1.478038e+03 	1.322004e+09 	1.796048e+02 	9.699990e+38 	
1.213371e+06 	1.464237e+03 	1.320512e+09 	1.812559e+02 	9.695926e+38 	
1.213496e+06 	1.450564e+03 	1.319021e+09 	1.829220e+02 	9.691846e+38 	
1.213621e+06 	1.437019e+03 	1.317529e+09 	1.846031e+02 	9.687748e+38 	
1.213747e+06 	1.423601e+03 	1.316036e+09 	1.862994e+02 	9.683633e+38 	
1.213874e+06 	1.410308e+03 	1.314544e+09 	1.880110e+02 	9.679501e+38 	
1.214001e+06 	1.397139e+03 	1.313052e+09 	1.897381e+02 	9.675352e+38 	
1.214130e+06 	1.384093e+03 	1.311559e+09 	1.914807e+02 	9.671186e+38 	
1.214259e+06 	1.371169e+03 	1.310067e+09 	1.932392e+02 	9.667003e+38 	
1.214389e+06 	1.358365e+03 	1.308574e+09 	1.950134e+02 	9.662802e+38 	
1.214519e+06 	1.345681e+03 	1.307080e+09 	1.968037e+02 	9.658585e+38 	
1.214650e+06 	1.333115e+03 	1.305587e+09 	1.986102e+02 	9.654350e+38 	
1.214783e+06 	1.320667e+03 	1.304094e+09 	2.004329e+02 	9.650098e+38 	
1.214916e+06 	1.308335e+03 	1.302600e+09 	2.022721e+02 	9.645828e+38 	
1.215049e+06 	1.296118e+03 	1.301106e+09 	2.041278e+02 	9.641542e+38 	
1.215184e+06 	1.284016e+03 	1.299611e+09 	2.060003e+02 	9.637238e+38 	
1.215320e+06 	1.272026e+03 	1.298116e+09 	2.078896e+02 	9.632917e+38 	
1.215456e+06 	1.260148e+03 	1.296621e+09 	2.097959e+02 	9.628579e+38 	
1.215593e+06 	1.248381e+03 	1.295126e+09 	2.117194e+02 	9.624224e+38 	
1.215731e+06 	1.236724e+03 	1.293630e+09 	2.136603e+02 	9.619851e+38 	
1.215870e+06 	1.225176e+03 	1.292134e+09 	2.156185e+02 	9.615461e+38 	
1.216009e+06 	1.213736e+03 	1.290638e+09 	2.175944e+02 	9.611053e+38 	
1.216150e+06 	1.202402e+03 	1.289141e+09 	2.195881e+02 	9.606629e+38 	
1.216291e+06 	1.191175e+03 	1.287644e+09 	2.215996e+02 	9.602187e+38 	
1.216433e+06 	1.180052e+03 	1.286146e+09 	2.236293e+02 	9.597728e+38 	
1.216576e+06 	1.169033e+03 	1.284648e+09 	2.256772e+02 	9.593251e+38 	
1.216720e+06 	1.158117e+03 	1.283150e+09 	2.277434e+02 	9.588757e+38 	
1.216865e+06 	1.147303e+03 	1.281651e+09 	2.298282e+02 	9.584246e+38 	
1.217011e+06 	1.136590e+03 	1.280151e+09 	2.319317e+02 	9.579718e+38 	
1.217158e+06 	1.125976e+03 	1.278651e+09 	2.340541e+02 	9.575173e+38 	
1.217305e+06 	1.115462e+03 	1.277151e+09 	2.361955e+02 	9.570610e+38 	
1.217454e+06 	1.105047e+03 	1.275650e+09 	2.383562e+02 	9.566030e+38 	
1.217603e+06 	1.094728e+03 	1.274148e+09 	2.405362e+02 	9.561432e+38 	
1.217753e+06 	1.084506e+03 	1.272646e+09 	2.427357e+02 	9.556817e+38 	
1.217905e+06 	1.074379e+03 	1.271144e+09 	2.449549e+02 	9.552185e+38 	
1.218057e+06 	1.064347e+03 	1.269641e+09 	2.471940e+02 	9.547536e+38 	
1.218210e+06 	1.054408e+03 	1.268137e+09 	2.494531e+02 	9.542869e+38 	
1.218364e+06 	1.044563e+03 	1.266633e+09 	2.517324e+02 	9.538186e+38 	
1.218519e+06 	1.034809e+03 	1.265128e+09 	2.540322e+02 	9.533485e+38 	
1.218675e+06 	1.025146e+03 	1.263623e+09 	2.563524e+02 	9.528766e+38 	
1.218832e+06 	1.015574e+03 	1.262117e+09 	2.586934e+02 	9.524031e+38 	
1.218990e+06 	1.006090e+03 	1.260610e+09 	2.610554e+02 	9.519278e+38 	
1.219149e+06 	9.966959e+02 	1.259103e+09 	2.634384e+02 	9.514509e+38 	
1.219309e+06 	9.873890e+02 	1.257595e+09 	2.658427e+02 	9.509721e+38 	
1.219470e+06 	9.781691e+02 	1.256086e+09 	2.682685e+02 	9.504917e+38 	
1.219632e+06 	9.690353e+02 	1.254577e+09 	2.707159e+02 	9.500096e+38 	
1.219795e+06 	9.599867e+02 	1.253067e+09 	2.731851e+02 	9.495257e+38 	
1.219959e+06 	9.510227e+02 	1.251557e+09 	2.756764e+02 	9.490402e+38 	
1.220124e+06 	9.421423e+02 	1.250045e+09 	2.781898e+02 	9.485529e+38 	
1.220290e+06 	9.333449e+02 	1.248533e+09 	2.807256e+02 	9.480639e+38 	
1.220457e+06 	9.246296e+02 	1.247020e+09 	2.832841e+02 	9.475733e+38 	
1.220625e+06 	9.159957e+02 	1.245507e+09 	2.858652e+02 	9.470809e+38 	
1.220794e+06 	9.074424e+02 	1.243992e+09 	2.884694e+02 	9.465868e+38 	
1.220965e+06 	8.989690e+02 	1.242477e+09 	2.910968e+02 	9.460910e+38 	
1.221136e+06 	8.905747e+02 	1.240962e+09 	2.937475e+02 	9.455935e+38 	
1.221308e+06 	8.822588e+02 	1.239445e+09 	2.964217e+02 	9.450943e+38 	
1.221482e+06 	8.740206e+02 	1.237928e+09 	2.991197e+02 	9.445935e+38 	
1.221657e+06 	8.658592e+02 	1.236410e+09 	3.018417e+02 	9.440909e+38 	
1.221832e+06 	8.577741e+02 	1.234891e+09 	3.045879e+02 	9.435866e+38 	
1.222009e+06 	8.497645e+02 	1.233371e+09 	3.073584e+02 	9.430807e+38 	
1.222187e+06 	8.418297e+02 	1.231850e+09 	3.101535e+02 	9.425731e+38 	
1.222366e+06 	8.339689e+02 	1.230329e+09 	3.129733e+02 	9.420638e+38 	
1.222546e+06 	8.261816e+02 	1.228807e+09 	3.158182e+02 	9.415528e+38 	
1.222728e+06 	8.184670e+02 	1.227284e+09 	3.186883e+02 	9.410402e+38 	
1.222910e+06 	8.108244e+02 	1.225760e+09 	3.215839e+02 	9.405259e+38 	
1.223094e+06 	8.032531e+02 	1.224235e+09 	3.245050e+02 	9.400099e+38 	
1.223278e+06 	7.957526e+02 	1.222710e+09 	3.274520e+02 	9.394922e+38 	
1.223464e+06 	7.883221e+02 	1.221183e+09 	3.304251e+02 	9.389729e+38 	
1.223651e+06 	7.809610e+02 	1.219656e+09 	3.334245e+02 	9.384520e+38 	
1.223840e+06 	7.736687e+02 	1.218127e+09 	3.364504e+02 	9.379294e+38 	
1.224029e+06 	7.664444e+02 	1.216598e+09 	3.395030e+02 	9.374051e+38 	
1.224220e+06 	7.592876e+02 	1.215068e+09 	3.425825e+02 	9.368792e+38 	
1.224412e+06 	7.521976e+02 	1.213537e+09 	3.456893e+02 	9.363517e+38 	
1.224605e+06 	7.451738e+02 	1.212005e+09 	3.488235e+02 	9.358225e+38 	
1.224799e+06 	7.382156e+02 	1.210472e+09 	3.519853e+02 	9.352916e+38 	
1.224995e+06 	7.313224e+02 	1.208939e+09 	3.551751e+02 	9.347592e+38 	
1.225191e+06 	7.244935e+02 	1.207404e+09 	3.583929e+02 	9.342251e+38 	
1.225389e+06 	7.177284e+02 	1.205868e+09 	3.616391e+02 	9.336894e+38 	
1.225589e+06 	7.110265e+02 	1.204332e+09 	3.649138e+02 	9.331521e+38 	
1.225789e+06 	7.043871e+02 	1.202794e+09 	3.682174e+02 	9.326132e+38 	
1.225991e+06 	6.978098e+02 	1.201256e+09 	3.715501e+02 	9.320727e+38 	
1.226194e+06 	6.912939e+02 	1.199716e+09 	3.749121e+02 	9.315305e+38 	
1.226399e+06 	6.848388e+02 	1.198176e+09 	3.783036e+02 	9.309868e+38 	
1.226604e+06 	6.784440e+02 	1.196634e+09 	3.817249e+02 	9.304415e+38 	
1.226811e+06 	6.721089e+02 	1.195092e+09 	3.851763e+02 	9.298946e+38 	
1.227019e+06 	6.658329e+02 	1.193549e+09 	3.886580e+02 	9.293461e+38 	
1.227229e+06 	6.596156e+02 	1.192004e+09 	3.921702e+02 	9.287960e+38 	
1.227440e+06 	6.534563e+02 	1.190459e+09 	3.957133e+02 	9.282443e+38 	
1.227652e+06 	6.473545e+02 	1.188913e+09 	3.992874e+02 	9.276911e+38 	
1.227866e+06 	6.413098e+02 	1.187365e+09 	4.028928e+02 	9.271363e+38 	
1.228080e+06 	6.353214e+02 	1.185817e+09 	4.065298e+02 	9.265800e+38 	
1.228297e+06 	6.293890e+02 	1.184268e+09 	4.101987e+02 	9.260221e+38 	
1.228514e+06 	6.235119e+02 	1.182717e+09 	4.138997e+02 	9.254627e+38 	
1.228733e+06 	6.176898e+02 	1.181166e+09 	4.176330e+02 	9.249017e+38 	
1.228954e+06 	6.119220e+02 	1.179614e+09 	4.213990e+02 	9.243392e+38 	
1.229175e+06 	6.062080e+02 	1.178060e+09 	4.251979e+02 	9.237752e+38 	
1.229399e+06 	6.005475e+02 	1.176506e+09 	4.290300e+02 	9.232096e+38 	
1.229623e+06 	5.949397e+02 	1.174951e+09 	4.328956e+02 	9.226425e+38 	
1.229849e+06 	5.893844e+02 	1.173394e+09 	4.367949e+02 	9.220739e+38 	
1.230076e+06 	5.838809e+02 	1.171837e+09 	4.407282e+02 	9.215038e+38 	
1.230305e+06 	5.784288e+02 	1.170278e+09 	4.446959e+02 	9.209322e+38 	
1.230535e+06 	5.730276e+02 	1.168719e+09 	4.486981e+02 	9.203591e+38 	
1.230767e+06 	5.676769e+02 	1.167158e+09 	4.527351e+02 	9.197845e+38 	
1.231000e+06 	5.623761e+02 	1.165597e+09 	4.568073e+02 	9.192085e+38 	
1.231235e+06 	5.571248e+02 	1.164034e+09 	4.609149e+02 	9.186309e+38 	
1.231471e+06 	5.519225e+02 	1.162471e+09 	4.650583e+02 	9.180519e+38 	
1.231708e+06 	5.467688e+02 	1.160906e+09 	4.692378e+02 	9.174714e+38 	
1.231947e+06 	5.416633e+02 	1.159340e+09 	4.734535e+02 	9.168895e+38 	
1.232188e+06 	5.366054e+02 	1.157774e+09 	4.777059e+02 	9.163061e+38 	
1.232430e+06 	5.315948e+02 	1.156206e+09 	4.819952e+02 	9.157213e+38 	
1.232673e+06 	5.266309e+02 	1.154637e+09 	4.863217e+02 	9.151351e+38 	
1.232918e+06 	5.217134e+02 	1.153067e+09 	4.906857e+02 	9.145474e+38 	
1.233165e+06 	5.168418e+02 	1.151497e+09 	4.950876e+02 	9.139583e+38 	
1.233413e+06 	5.120157e+02 	1.149925e+09 	4.995276e+02 	9.133678e+38 	
1.233662e+06 	5.072346e+02 	1.148352e+09 	5.040060e+02 	9.127759e+38 	
1.233914e+06 	5.024982e+02 	1.146778e+09 	5.085232e+02 	9.121825e+38 	
1.234166e+06 	4.978061e+02 	1.145203e+09 	5.130796e+02 	9.115878e+38 	
1.234421e+06 	4.931577e+02 	1.143627e+09 	5.176753e+02 	9.109917e+38 	
1.234676e+06 	4.885528e+02 	1.142050e+09 	5.223108e+02 	9.103942e+38 	
1.234934e+06 	4.839908e+02 	1.140472e+09 	5.269863e+02 	9.097954e+38 	
