r (cm)      	rho (g/cm3) 	T (K)       	u (cm/s)    	L* (erg/s)  			 Edot= 4.864940e+39
1.200000e+06 	2.022020e+03 	1.583364e+09 	1.694369e+02 	1.095440e+39 	
1.200197e+06 	2.004126e+03 	1.581379e+09 	1.708863e+02 	1.094784e+39 	
1.200394e+06 	1.986390e+03 	1.579394e+09 	1.723478e+02 	1.094127e+39 	
1.200593e+06 	1.968811e+03 	1.577407e+09 	1.738214e+02 	1.093468e+39 	
1.200793e+06 	1.951387e+03 	1.575420e+09 	1.753073e+02 	1.092808e+39 	
1.200994e+06 	1.934118e+03 	1.573432e+09 	1.768055e+02 	1.092146e+39 	
1.201197e+06 	1.917002e+03 	1.571443e+09 	1.783162e+02 	1.091481e+39 	
1.201400e+06 	1.900037e+03 	1.569454e+09 	1.798393e+02 	1.090816e+39 	
1.201605e+06 	1.883222e+03 	1.567463e+09 	1.813751e+02 	1.090148e+39 	
1.201810e+06 	1.866556e+03 	1.565472e+09 	1.829236e+02 	1.089479e+39 	
1.202017e+06 	1.850037e+03 	1.563480e+09 	1.844850e+02 	1.088808e+39 	
1.202225e+06 	1.833665e+03 	1.561487e+09 	1.860593e+02 	1.088135e+39 	
1.202434e+06 	1.817437e+03 	1.559493e+09 	1.876467e+02 	1.087461e+39 	
1.202645e+06 	1.801353e+03 	1.557499e+09 	1.892471e+02 	1.086785e+39 	
1.202856e+06 	1.785412e+03 	1.555503e+09 	1.908609e+02 	1.086107e+39 	
1.203069e+06 	1.769612e+03 	1.553507e+09 	1.924879e+02 	1.085428e+39 	
1.203283e+06 	1.753951e+03 	1.551510e+09 	1.941284e+02 	1.084746e+39 	
1.203498e+06 	1.738429e+03 	1.549513e+09 	1.957825e+02 	1.084064e+39 	
1.203715e+06 	1.723044e+03 	1.547514e+09 	1.974502e+02 	1.083379e+39 	
1.203932e+06 	1.707796e+03 	1.545514e+09 	1.991317e+02 	1.082693e+39 	
1.204151e+06 	1.692682e+03 	1.543514e+09 	2.008270e+02 	1.082005e+39 	
1.204371e+06 	1.677702e+03 	1.541513e+09 	2.025364e+02 	1.081316e+39 	
1.204592e+06 	1.662855e+03 	1.539511e+09 	2.042598e+02 	1.080625e+39 	
1.204815e+06 	1.648139e+03 	1.537508e+09 	2.059975e+02 	1.079932e+39 	
1.205039e+06 	1.633554e+03 	1.535504e+09 	2.077494e+02 	1.079237e+39 	
1.205264e+06 	1.619097e+03 	1.533500e+09 	2.095158e+02 	1.078541e+39 	
1.205490e+06 	1.604769e+03 	1.531494e+09 	2.112967e+02 	1.077844e+39 	
1.205718e+06 	1.590567e+03 	1.529488e+09 	2.130923e+02 	1.077145e+39 	
1.205946e+06 	1.576491e+03 	1.527481e+09 	2.149026e+02 	1.076444e+39 	
1.206176e+06 	1.562539e+03 	1.525473e+09 	2.167278e+02 	1.075741e+39 	
1.206408e+06 	1.548711e+03 	1.523464e+09 	2.185680e+02 	1.075037e+39 	
1.206641e+06 	1.535005e+03 	1.521454e+09 	2.204233e+02 	1.074332e+39 	
1.206875e+06 	1.521421e+03 	1.519444e+09 	2.222939e+02 	1.073624e+39 	
1.207110e+06 	1.507957e+03 	1.517432e+09 	2.241798e+02 	1.072916e+39 	
1.207347e+06 	1.494612e+03 	1.515420e+09 	2.260811e+02 	1.072205e+39 	
1.207584e+06 	1.481385e+03 	1.513407e+09 	2.279981e+02 	1.071493e+39 	
1.207824e+06 	1.468275e+03 	1.511393e+09 	2.299308e+02 	1.070780e+39 	
1.208064e+06 	1.455281e+03 	1.509378e+09 	2.318792e+02 	1.070065e+39 	
1.208306e+06 	1.442402e+03 	1.507363e+09 	2.338437e+02 	1.069348e+39 	
1.208550e+06 	1.429637e+03 	1.505346e+09 	2.358242e+02 	1.068630e+39 	
1.208794e+06 	1.416985e+03 	1.503329e+09 	2.378209e+02 	1.067911e+39 	
1.209040e+06 	1.404445e+03 	1.501310e+09 	2.398339e+02 	1.067190e+39 	
1.209288e+06 	1.392016e+03 	1.499291e+09 	2.418633e+02 	1.066467e+39 	
1.209536e+06 	1.379698e+03 	1.497271e+09 	2.439094e+02 	1.065743e+39 	
1.209787e+06 	1.367488e+03 	1.495250e+09 	2.459721e+02 	1.065017e+39 	
1.210038e+06 	1.355386e+03 	1.493229e+09 	2.480517e+02 	1.064290e+39 	
1.210291e+06 	1.343391e+03 	1.491206e+09 	2.501483e+02 	1.063562e+39 	
1.210545e+06 	1.331502e+03 	1.489183e+09 	2.522619e+02 	1.062832e+39 	
1.210801e+06 	1.319719e+03 	1.487159e+09 	2.543928e+02 	1.062100e+39 	
1.211058e+06 	1.308040e+03 	1.485134e+09 	2.565410e+02 	1.061367e+39 	
1.211316e+06 	1.296464e+03 	1.483108e+09 	2.587067e+02 	1.060633e+39 	
1.211576e+06 	1.284990e+03 	1.481081e+09 	2.608900e+02 	1.059897e+39 	
1.211838e+06 	1.273619e+03 	1.479054e+09 	2.630910e+02 	1.059160e+39 	
1.212101e+06 	1.262347e+03 	1.477025e+09 	2.653100e+02 	1.058422e+39 	
1.212365e+06 	1.251176e+03 	1.474996e+09 	2.675470e+02 	1.057682e+39 	
1.212631e+06 	1.240103e+03 	1.472966e+09 	2.698021e+02 	1.056940e+39 	
1.212898e+06 	1.229129e+03 	1.470936e+09 	2.720756e+02 	1.056197e+39 	
1.213166e+06 	1.218251e+03 	1.468904e+09 	2.743675e+02 	1.055453e+39 	
1.213436e+06 	1.207470e+03 	1.466872e+09 	2.766780e+02 	1.054708e+39 	
1.213708e+06 	1.196784e+03 	1.464839e+09 	2.790073e+02 	1.053961e+39 	
1.213981e+06 	1.186193e+03 	1.462805e+09 	2.813554e+02 	1.053212e+39 	
1.214255e+06 	1.175695e+03 	1.460770e+09 	2.837225e+02 	1.052463e+39 	
1.214531e+06 	1.165291e+03 	1.458734e+09 	2.861088e+02 	1.051712e+39 	
1.214809e+06 	1.154978e+03 	1.456698e+09 	2.885143e+02 	1.050960e+39 	
1.215088e+06 	1.144757e+03 	1.454661e+09 	2.909393e+02 	1.050206e+39 	
1.215369e+06 	1.134626e+03 	1.452623e+09 	2.933840e+02 	1.049451e+39 	
1.215651e+06 	1.124585e+03 	1.450584e+09 	2.958483e+02 	1.048695e+39 	
1.215934e+06 	1.114633e+03 	1.448545e+09 	2.983326e+02 	1.047937e+39 	
1.216219e+06 	1.104769e+03 	1.446505e+09 	3.008369e+02 	1.047179e+39 	
1.216506e+06 	1.094992e+03 	1.444464e+09 	3.033615e+02 	1.046418e+39 	
1.216794e+06 	1.085301e+03 	1.442422e+09 	3.059063e+02 	1.045657e+39 	
1.217084e+06 	1.075697e+03 	1.440380e+09 	3.084717e+02 	1.044894e+39 	
1.217375e+06 	1.066177e+03 	1.438337e+09 	3.110578e+02 	1.044131e+39 	
1.217668e+06 	1.056742e+03 	1.436293e+09 	3.136646e+02 	1.043365e+39 	
1.217962e+06 	1.047390e+03 	1.434248e+09 	3.162924e+02 	1.042599e+39 	
1.218258e+06 	1.038121e+03 	1.432203e+09 	3.189414e+02 	1.041832e+39 	
1.218556e+06 	1.028934e+03 	1.430157e+09 	3.216116e+02 	1.041063e+39 	
1.218855e+06 	1.019828e+03 	1.428110e+09 	3.243034e+02 	1.040293e+39 	
1.219156e+06 	1.010802e+03 	1.426063e+09 	3.270167e+02 	1.039522e+39 	
1.219458e+06 	1.001857e+03 	1.424015e+09 	3.297518e+02 	1.038749e+39 	
1.219762e+06 	9.929910e+02 	1.421967e+09 	3.325089e+02 	1.037976e+39 	
1.220068e+06 	9.842033e+02 	1.419917e+09 	3.352880e+02 	1.037201e+39 	
1.220375e+06 	9.754933e+02 	1.417867e+09 	3.380895e+02 	1.036425e+39 	
1.220684e+06 	9.668604e+02 	1.415817e+09 	3.409133e+02 	1.035648e+39 	
1.220994e+06 	9.583040e+02 	1.413765e+09 	3.437598e+02 	1.034870e+39 	
1.221306e+06 	9.498232e+02 	1.411713e+09 	3.466290e+02 	1.034091e+39 	
1.221620e+06 	9.414175e+02 	1.409661e+09 	3.495212e+02 	1.033311e+39 	
1.221935e+06 	9.330862e+02 	1.407607e+09 	3.524365e+02 	1.032529e+39 	
1.222253e+06 	9.248287e+02 	1.405554e+09 	3.553751e+02 	1.031746e+39 	
1.222571e+06 	9.166442e+02 	1.403499e+09 	3.583372e+02 	1.030963e+39 	
1.222892e+06 	9.085321e+02 	1.401444e+09 	3.613229e+02 	1.030178e+39 	
1.223214e+06 	9.004918e+02 	1.399389e+09 	3.643325e+02 	1.029392e+39 	
1.223537e+06 	8.925227e+02 	1.397333e+09 	3.673660e+02 	1.028605e+39 	
1.223863e+06 	8.846241e+02 	1.395276e+09 	3.704237e+02 	1.027817e+39 	
1.224190e+06 	8.767954e+02 	1.393219e+09 	3.735058e+02 	1.027028e+39 	
1.224519e+06 	8.690360e+02 	1.391161e+09 	3.766124e+02 	1.026238e+39 	
1.224849e+06 	8.613453e+02 	1.389103e+09 	3.797437e+02 	1.025447e+39 	
1.225181e+06 	8.537226e+02 	1.387044e+09 	3.828999e+02 	1.024655e+39 	
1.225515e+06 	8.461673e+02 	1.384984e+09 	3.860812e+02 	1.023862e+39 	
1.225851e+06 	8.386790e+02 	1.382924e+09 	3.892877e+02 	1.023068e+39 	
1.226188e+06 	8.312569e+02 	1.380864e+09 	3.925197e+02 	1.022273e+39 	
1.226527e+06 	8.239005e+02 	1.378803e+09 	3.957774e+02 	1.021477e+39 	
1.226868e+06 	8.166092e+02 	1.376742e+09 	3.990610e+02 	1.020680e+39 	
1.227211e+06 	8.093824e+02 	1.374680e+09 	4.023706e+02 	1.019882e+39 	
1.227555e+06 	8.022196e+02 	1.372618e+09 	4.057064e+02 	1.019083e+39 	
1.227901e+06 	7.951201e+02 	1.370555e+09 	4.090686e+02 	1.018283e+39 	
1.228249e+06 	7.880835e+02 	1.368492e+09 	4.124574e+02 	1.017482e+39 	
1.228599e+06 	7.811092e+02 	1.366428e+09 	4.158730e+02 	1.016681e+39 	
1.228950e+06 	7.741966e+02 	1.364364e+09 	4.193156e+02 	1.015878e+39 	
1.229304e+06 	7.673451e+02 	1.362300e+09 	4.227855e+02 	1.015075e+39 	
1.229659e+06 	7.605543e+02 	1.360235e+09 	4.262827e+02 	1.014270e+39 	
1.230015e+06 	7.538236e+02 	1.358170e+09 	4.298075e+02 	1.013465e+39 	
1.230374e+06 	7.471525e+02 	1.356104e+09 	4.333602e+02 	1.012659e+39 	
1.230734e+06 	7.405404e+02 	1.354038e+09 	4.369410e+02 	1.011852e+39 	
1.231096e+06 	7.339868e+02 	1.351972e+09 	4.405499e+02 	1.011044e+39 	
1.231460e+06 	7.274912e+02 	1.349906e+09 	4.441873e+02 	1.010235e+39 	
1.231826e+06 	7.210531e+02 	1.347839e+09 	4.478533e+02 	1.009426e+39 	
1.232194e+06 	7.146719e+02 	1.345772e+09 	4.515481e+02 	1.008615e+39 	
1.232563e+06 	7.083473e+02 	1.343704e+09 	4.552720e+02 	1.007804e+39 	
1.232935e+06 	7.020786e+02 	1.341636e+09 	4.590252e+02 	1.006992e+39 	
1.233308e+06 	6.958654e+02 	1.339568e+09 	4.628078e+02 	1.006180e+39 	
1.233683e+06 	6.897071e+02 	1.337499e+09 	4.666202e+02 	1.005366e+39 	
1.234060e+06 	6.836034e+02 	1.335431e+09 	4.704625e+02 	1.004552e+39 	
1.234439e+06 	6.775537e+02 	1.333362e+09 	4.743349e+02 	1.003737e+39 	
1.234819e+06 	6.715575e+02 	1.331293e+09 	4.782378e+02 	1.002921e+39 	
1.235202e+06 	6.656144e+02 	1.329224e+09 	4.821712e+02 	1.002104e+39 	
1.235586e+06 	6.597239e+02 	1.327154e+09 	4.861354e+02 	1.001287e+39 	
1.235972e+06 	6.538855e+02 	1.325085e+09 	4.901307e+02 	1.000469e+39 	
1.236360e+06 	6.480988e+02 	1.323015e+09 	4.941572e+02 	9.996502e+38 	
1.236751e+06 	6.423633e+02 	1.320945e+09 	4.982152e+02 	9.988307e+38 	
1.237142e+06 	6.366785e+02 	1.318874e+09 	5.023049e+02 	9.980106e+38 	
1.237536e+06 	6.310441e+02 	1.316804e+09 	5.064265e+02 	9.971898e+38 	
1.237932e+06 	6.254595e+02 	1.314733e+09 	5.105803e+02 	9.963683e+38 	
1.238330e+06 	6.199243e+02 	1.312663e+09 	5.147665e+02 	9.955461e+38 	
1.238729e+06 	6.144382e+02 	1.310592e+09 	5.189855e+02 	9.947233e+38 	
1.239131e+06 	6.090005e+02 	1.308521e+09 	5.232373e+02 	9.938998e+38 	
1.239534e+06 	6.036111e+02 	1.306450e+09 	5.275222e+02 	9.930757e+38 	
1.239940e+06 	5.982692e+02 	1.304380e+09 	5.318405e+02 	9.922510e+38 	
1.240347e+06 	5.929747e+02 	1.302309e+09 	5.361924e+02 	9.914256e+38 	
1.240756e+06 	5.877270e+02 	1.300238e+09 	5.405781e+02 	9.905996e+38 	
1.241168e+06 	5.825258e+02 	1.298166e+09 	5.449980e+02 	9.897731e+38 	
1.241581e+06 	5.773706e+02 	1.296095e+09 	5.494521e+02 	9.889459e+38 	
1.241996e+06 	5.722610e+02 	1.294024e+09 	5.539409e+02 	9.881182e+38 	
1.242413e+06 	5.671967e+02 	1.291953e+09 	5.584644e+02 	9.872899e+38 	
1.242832e+06 	5.621771e+02 	1.289882e+09 	5.630231e+02 	9.864610e+38 	
1.243253e+06 	5.572020e+02 	1.287811e+09 	5.676172e+02 	9.856316e+38 	
1.243676e+06 	5.522709e+02 	1.285740e+09 	5.722469e+02 	9.848016e+38 	
1.244101e+06 	5.473834e+02 	1.283669e+09 	5.769124e+02 	9.839711e+38 	
1.244528e+06 	5.425392e+02 	1.281598e+09 	5.816141e+02 	9.831401e+38 	
1.244957e+06 	5.377379e+02 	1.279528e+09 	5.863521e+02 	9.823085e+38 	
1.245389e+06 	5.329791e+02 	1.277457e+09 	5.911267e+02 	9.814765e+38 	
1.245822e+06 	5.282623e+02 	1.275386e+09 	5.959382e+02 	9.806439e+38 	
1.246257e+06 	5.235874e+02 	1.273316e+09 	6.007869e+02 	9.798109e+38 	
1.246694e+06 	5.189537e+02 	1.271246e+09 	6.056730e+02 	9.789774e+38 	
1.247133e+06 	5.143611e+02 	1.269176e+09 	6.105968e+02 	9.781435e+38 	
1.247574e+06 	5.098092e+02 	1.267106e+09 	6.155586e+02 	9.773090e+38 	
1.248017e+06 	5.052975e+02 	1.265036e+09 	6.205587e+02 	9.764741e+38 	
1.248463e+06 	5.008257e+02 	1.262966e+09 	6.255973e+02 	9.756388e+38 	
1.248910e+06 	4.963936e+02 	1.260897e+09 	6.306747e+02 	9.748030e+38 	
1.249359e+06 	4.920006e+02 	1.258828e+09 	6.357912e+02 	9.739668e+38 	
1.249811e+06 	4.876465e+02 	1.256759e+09 	6.409470e+02 	9.731302e+38 	
1.250264e+06 	4.833310e+02 	1.254691e+09 	6.461424e+02 	9.722932e+38 	
1.250720e+06 	4.790536e+02 	1.252622e+09 	6.513778e+02 	9.714558e+38 	
1.251177e+06 	4.748141e+02 	1.250554e+09 	6.566533e+02 	9.706180e+38 	
1.251637e+06 	4.706121e+02 	1.248486e+09 	6.619693e+02 	9.697799e+38 	
1.252099e+06 	4.664473e+02 	1.246419e+09 	6.673261e+02 	9.689414e+38 	
1.252563e+06 	4.623194e+02 	1.244352e+09 	6.727240e+02 	9.681025e+38 	
1.253029e+06 	4.582280e+02 	1.242285e+09 	6.781633e+02 	9.672632e+38 	
1.253497e+06 	4.541728e+02 	1.240219e+09 	6.836442e+02 	9.664236e+38 	
1.253967e+06 	4.501535e+02 	1.238153e+09 	6.891671e+02 	9.655837e+38 	
1.254439e+06 	4.461697e+02 	1.236087e+09 	6.947322e+02 	9.647435e+38 	
1.254914e+06 	4.422213e+02 	1.234022e+09 	7.003399e+02 	9.639029e+38 	
1.255390e+06 	4.383077e+02 	1.231957e+09 	7.059904e+02 	9.630620e+38 	
1.255869e+06 	4.344288e+02 	1.229892e+09 	7.116840e+02 	9.622209e+38 	
1.256349e+06 	4.305842e+02 	1.227828e+09 	7.174211e+02 	9.613794e+38 	
1.256832e+06 	4.267737e+02 	1.225764e+09 	7.232020e+02 	9.605377e+38 	
1.257317e+06 	4.229968e+02 	1.223701e+09 	7.290269e+02 	9.596957e+38 	
1.257804e+06 	4.192534e+02 	1.221638e+09 	7.348963e+02 	9.588534e+38 	
1.258294e+06 	4.155431e+02 	1.219576e+09 	7.408104e+02 	9.580109e+38 	
1.258785e+06 	4.118657e+02 	1.217515e+09 	7.467696e+02 	9.571681e+38 	
1.259279e+06 	4.082208e+02 	1.215453e+09 	7.527741e+02 	9.563251e+38 	
1.259774e+06 	4.046081e+02 	1.213393e+09 	7.588242e+02 	9.554818e+38 	
1.260272e+06 	4.010274e+02 	1.211333e+09 	7.649203e+02 	9.546384e+38 	
1.260772e+06 	3.974784e+02 	1.209273e+09 	7.710627e+02 	9.537947e+38 	
1.261275e+06 	3.939609e+02 	1.207214e+09 	7.772517e+02 	9.529508e+38 	
1.261779e+06 	3.904744e+02 	1.205156e+09 	7.834877e+02 	9.521068e+38 	
1.262286e+06 	3.870188e+02 	1.203098e+09 	7.897710e+02 	9.512625e+38 	
1.262795e+06 	3.835938e+02 	1.201041e+09 	7.961019e+02 	9.504181e+38 	
1.263306e+06 	3.801991e+02 	1.198984e+09 	8.024808e+02 	9.495735e+38 	
1.263819e+06 	3.768344e+02 	1.196928e+09 	8.089081e+02 	9.487287e+38 	
1.264334e+06 	3.734995e+02 	1.194873e+09 	8.153840e+02 	9.478838e+38 	
1.264852e+06 	3.701942e+02 	1.192818e+09 	8.219089e+02 	9.470387e+38 	
1.265371e+06 	3.669180e+02 	1.190764e+09 	8.284831e+02 	9.461935e+38 	
1.265893e+06 	3.636709e+02 	1.188711e+09 	8.351069e+02 	9.453481e+38 	
1.266418e+06 	3.604525e+02 	1.186658e+09 	8.417808e+02 	9.445026e+38 	
1.266944e+06 	3.572626e+02 	1.184607e+09 	8.485050e+02 	9.436571e+38 	
1.267473e+06 	3.541009e+02 	1.182555e+09 	8.552799e+02 	9.428114e+38 	
1.268004e+06 	3.509672e+02 	1.180505e+09 	8.621059e+02 	9.419657e+38 	
1.268537e+06 	3.478612e+02 	1.178455e+09 	8.689834e+02 	9.411198e+38 	
1.269072e+06 	3.447828e+02 	1.176407e+09 	8.759127e+02 	9.402738e+38 	
1.269610e+06 	3.417315e+02 	1.174359e+09 	8.828942e+02 	9.394278e+38 	
1.270150e+06 	3.387073e+02 	1.172311e+09 	8.899283e+02 	9.385817e+38 	
1.270692e+06 	3.357098e+02 	1.170265e+09 	8.970152e+02 	9.377355e+38 	
1.271236e+06 	3.327389e+02 	1.168219e+09 	9.041554e+02 	9.368893e+38 	
1.271783e+06 	3.297942e+02 	1.166175e+09 	9.113491e+02 	9.360431e+38 	
1.272332e+06 	3.268756e+02 	1.164131e+09 	9.185969e+02 	9.351968e+38 	
1.272883e+06 	3.239829e+02 	1.162088e+09 	9.258990e+02 	9.343505e+38 	
1.273436e+06 	3.211157e+02 	1.160045e+09 	9.332559e+02 	9.335042e+38 	
1.273992e+06 	3.182739e+02 	1.158004e+09 	9.406680e+02 	9.326579e+38 	
1.274550e+06 	3.154573e+02 	1.155964e+09 	9.481356e+02 	9.318115e+38 	
1.275110e+06 	3.126655e+02 	1.153924e+09 	9.556592e+02 	9.309652e+38 	
1.275673e+06 	3.098985e+02 	1.151886e+09 	9.632391e+02 	9.301189e+38 	
1.276238e+06 	3.071560e+02 	1.149848e+09 	9.708757e+02 	9.292725e+38 	
1.276805e+06 	3.044378e+02 	1.147812e+09 	9.785693e+02 	9.284262e+38 	
1.277374e+06 	3.017436e+02 	1.145776e+09 	9.863205e+02 	9.275800e+38 	
1.277946e+06 	2.990732e+02 	1.143742e+09 	9.941295e+02 	9.267338e+38 	
1.278520e+06 	2.964265e+02 	1.141708e+09 	1.001997e+03 	9.258876e+38 	
1.279097e+06 	2.938032e+02 	1.139675e+09 	1.009923e+03 	9.250415e+38 	
1.279676e+06 	2.912031e+02 	1.137643e+09 	1.017908e+03 	9.241955e+38 	
1.280257e+06 	2.886260e+02 	1.135613e+09 	1.025952e+03 	9.233495e+38 	
1.280840e+06 	2.860718e+02 	1.133583e+09 	1.034057e+03 	9.225036e+38 	
1.281426e+06 	2.835401e+02 	1.131555e+09 	1.042222e+03 	9.216578e+38 	
1.282014e+06 	2.810309e+02 	1.129527e+09 	1.050447e+03 	9.208120e+38 	
1.282604e+06 	2.785438e+02 	1.127501e+09 	1.058734e+03 	9.199664e+38 	
1.283197e+06 	2.760788e+02 	1.125476e+09 	1.067082e+03 	9.191208e+38 	
1.283792e+06 	2.736355e+02 	1.123452e+09 	1.075493e+03 	9.182754e+38 	
1.284390e+06 	2.712139e+02 	1.121429e+09 	1.083966e+03 	9.174301e+38 	
1.284989e+06 	2.688138e+02 	1.119407e+09 	1.092501e+03 	9.165849e+38 	
1.285592e+06 	2.664348e+02 	1.117386e+09 	1.101100e+03 	9.157399e+38 	
1.286196e+06 	2.640769e+02 	1.115367e+09 	1.109763e+03 	9.148950e+38 	
1.286803e+06 	2.617399e+02 	1.113348e+09 	1.118490e+03 	9.140503e+38 	
1.287412e+06 	2.594236e+02 	1.111331e+09 	1.127281e+03 	9.132057e+38 	
1.288024e+06 	2.571278e+02 	1.109315e+09 	1.136138e+03 	9.123612e+38 	
1.288638e+06 	2.548523e+02 	1.107300e+09 	1.145060e+03 	9.115170e+38 	
1.289254e+06 	2.525969e+02 	1.105287e+09 	1.154048e+03 	9.106728e+38 	
1.289873e+06 	2.503615e+02 	1.103275e+09 	1.163103e+03 	9.098289e+38 	
1.290494e+06 	2.481458e+02 	1.101264e+09 	1.172224e+03 	9.089851e+38 	
1.291118e+06 	2.459498e+02 	1.099254e+09 	1.181413e+03 	9.081416e+38 	
1.291744e+06 	2.437732e+02 	1.097245e+09 	1.190669e+03 	9.072982e+38 	
1.292372e+06 	2.416159e+02 	1.095238e+09 	1.199994e+03 	9.064551e+38 	
1.293003e+06 	2.394776e+02 	1.093232e+09 	1.209387e+03 	9.056122e+38 	
1.293637e+06 	2.373583e+02 	1.091227e+09 	1.218850e+03 	9.047695e+38 	
1.294272e+06 	2.352578e+02 	1.089224e+09 	1.228382e+03 	9.039270e+38 	
1.294910e+06 	2.331758e+02 	1.087222e+09 	1.237985e+03 	9.030847e+38 	
1.295551e+06 	2.311122e+02 	1.085221e+09 	1.247658e+03 	9.022427e+38 	
1.296194e+06 	2.290670e+02 	1.083222e+09 	1.257402e+03 	9.014009e+38 	
1.296839e+06 	2.270398e+02 	1.081224e+09 	1.267218e+03 	9.005594e+38 	
1.297487e+06 	2.250305e+02 	1.079228e+09 	1.277106e+03 	8.997181e+38 	
1.298137e+06 	2.230391e+02 	1.077232e+09 	1.287067e+03 	8.988771e+38 	
1.298790e+06 	2.210652e+02 	1.075239e+09 	1.297100e+03 	8.980363e+38 	
1.299445e+06 	2.191089e+02 	1.073246e+09 	1.307207e+03 	8.971959e+38 	
1.300103e+06 	2.171698e+02 	1.071255e+09 	1.317388e+03 	8.963557e+38 	
1.300763e+06 	2.152479e+02 	1.069266e+09 	1.327644e+03 	8.955158e+38 	
1.301425e+06 	2.133430e+02 	1.067278e+09 	1.337975e+03 	8.946762e+38 	
1.302090e+06 	2.114550e+02 	1.065291e+09 	1.348381e+03 	8.938369e+38 	
1.302758e+06 	2.095837e+02 	1.063306e+09 	1.358864e+03 	8.929979e+38 	
1.303427e+06 	2.077289e+02 	1.061322e+09 	1.369423e+03 	8.921591e+38 	
1.304100e+06 	2.058906e+02 	1.059340e+09 	1.380059e+03 	8.913207e+38 	
1.304775e+06 	2.040685e+02 	1.057359e+09 	1.390773e+03 	8.904827e+38 	
1.305452e+06 	2.022625e+02 	1.055380e+09 	1.401565e+03 	8.896449e+38 	
1.306132e+06 	2.004726e+02 	1.053402e+09 	1.412436e+03 	8.888075e+38 	
1.306814e+06 	1.986984e+02 	1.051426e+09 	1.423386e+03 	8.879705e+38 	
1.307499e+06 	1.969400e+02 	1.049452e+09 	1.434416e+03 	8.871338e+38 	
1.308186e+06 	1.951971e+02 	1.047478e+09 	1.445526e+03 	8.862974e+38 	
1.308876e+06 	1.934697e+02 	1.045507e+09 	1.456717e+03 	8.854614e+38 	
1.309569e+06 	1.917575e+02 	1.043537e+09 	1.467989e+03 	8.846257e+38 	
1.310263e+06 	1.900605e+02 	1.041569e+09 	1.479344e+03 	8.837904e+38 	
1.310961e+06 	1.883785e+02 	1.039602e+09 	1.490781e+03 	8.829555e+38 	
1.311661e+06 	1.867114e+02 	1.037637e+09 	1.502301e+03 	8.821209e+38 	
1.312363e+06 	1.850591e+02 	1.035674e+09 	1.513905e+03 	8.812868e+38 	
1.313068e+06 	1.834214e+02 	1.033712e+09 	1.525592e+03 	8.804530e+38 	
1.313775e+06 	1.817981e+02 	1.031751e+09 	1.537365e+03 	8.796196e+38 	
1.314485e+06 	1.801893e+02 	1.029793e+09 	1.549223e+03 	8.787867e+38 	
1.315198e+06 	1.785946e+02 	1.027836e+09 	1.561167e+03 	8.779541e+38 	
1.315913e+06 	1.770141e+02 	1.025880e+09 	1.573197e+03 	8.771220e+38 	
1.316630e+06 	1.754476e+02 	1.023927e+09 	1.585315e+03 	8.762902e+38 	
1.317351e+06 	1.738949e+02 	1.021975e+09 	1.597520e+03 	8.754589e+38 	
1.318073e+06 	1.723560e+02 	1.020025e+09 	1.609813e+03 	8.746279e+38 	
1.318799e+06 	1.708307e+02 	1.018076e+09 	1.622196e+03 	8.737974e+38 	
1.319526e+06 	1.693189e+02 	1.016129e+09 	1.634667e+03 	8.729674e+38 	
