r (cm)      	rho (g/cm3) 	T (K)       	u (cm/s)    	L* (erg/s)  			 Edot= 5.414392e+39
1.200000e+06 	1.324182e+03 	1.585069e+09 	2.902993e+02 	1.108881e+39 	
1.200356e+06 	1.312671e+03 	1.582655e+09 	2.926485e+02 	1.107968e+39 	
1.200713e+06 	1.301260e+03 	1.580241e+09 	2.950157e+02 	1.107054e+39 	
1.201072e+06 	1.289948e+03 	1.577827e+09 	2.974013e+02 	1.106139e+39 	
1.201433e+06 	1.278735e+03 	1.575413e+09 	2.998053e+02 	1.105223e+39 	
1.201795e+06 	1.267619e+03 	1.572999e+09 	3.022278e+02 	1.104306e+39 	
1.202159e+06 	1.256600e+03 	1.570584e+09 	3.046689e+02 	1.103389e+39 	
1.202525e+06 	1.245676e+03 	1.568170e+09 	3.071289e+02 	1.102470e+39 	
1.202893e+06 	1.234848e+03 	1.565755e+09 	3.096077e+02 	1.101551e+39 	
1.203263e+06 	1.224114e+03 	1.563341e+09 	3.121056e+02 	1.100631e+39 	
1.203634e+06 	1.213472e+03 	1.560926e+09 	3.146228e+02 	1.099711e+39 	
1.204007e+06 	1.202924e+03 	1.558511e+09 	3.171592e+02 	1.098789e+39 	
1.204381e+06 	1.192467e+03 	1.556096e+09 	3.197152e+02 	1.097867e+39 	
1.204758e+06 	1.182101e+03 	1.553681e+09 	3.222907e+02 	1.096944e+39 	
1.205136e+06 	1.171825e+03 	1.551267e+09 	3.248861e+02 	1.096020e+39 	
1.205516e+06 	1.161639e+03 	1.548852e+09 	3.275013e+02 	1.095096e+39 	
1.205897e+06 	1.151541e+03 	1.546437e+09 	3.301366e+02 	1.094170e+39 	
1.206281e+06 	1.141531e+03 	1.544022e+09 	3.327921e+02 	1.093244e+39 	
1.206666e+06 	1.131607e+03 	1.541608e+09 	3.354679e+02 	1.092318e+39 	
1.207053e+06 	1.121771e+03 	1.539193e+09 	3.381642e+02 	1.091390e+39 	
1.207442e+06 	1.112019e+03 	1.536779e+09 	3.408811e+02 	1.090462e+39 	
1.207833e+06 	1.102352e+03 	1.534364e+09 	3.436187e+02 	1.089534e+39 	
1.208225e+06 	1.092770e+03 	1.531950e+09 	3.463773e+02 	1.088604e+39 	
1.208619e+06 	1.083271e+03 	1.529535e+09 	3.491569e+02 	1.087675e+39 	
1.209015e+06 	1.073854e+03 	1.527121e+09 	3.519578e+02 	1.086744e+39 	
1.209413e+06 	1.064519e+03 	1.524707e+09 	3.547800e+02 	1.085813e+39 	
1.209813e+06 	1.055265e+03 	1.522294e+09 	3.576238e+02 	1.084881e+39 	
1.210214e+06 	1.046092e+03 	1.519880e+09 	3.604892e+02 	1.083948e+39 	
1.210617e+06 	1.036998e+03 	1.517467e+09 	3.633765e+02 	1.083015e+39 	
1.211022e+06 	1.027984e+03 	1.515053e+09 	3.662857e+02 	1.082081e+39 	
1.211429e+06 	1.019048e+03 	1.512640e+09 	3.692171e+02 	1.081147e+39 	
1.211838e+06 	1.010189e+03 	1.510227e+09 	3.721707e+02 	1.080212e+39 	
1.212249e+06 	1.001408e+03 	1.507815e+09 	3.751468e+02 	1.079277e+39 	
1.212661e+06 	9.927029e+02 	1.505402e+09 	3.781455e+02 	1.078341e+39 	
1.213076e+06 	9.840734e+02 	1.502990e+09 	3.811670e+02 	1.077405e+39 	
1.213492e+06 	9.755190e+02 	1.500579e+09 	3.842114e+02 	1.076468e+39 	
1.213910e+06 	9.670390e+02 	1.498167e+09 	3.872789e+02 	1.075530e+39 	
1.214330e+06 	9.586326e+02 	1.495756e+09 	3.903697e+02 	1.074592e+39 	
1.214752e+06 	9.502993e+02 	1.493345e+09 	3.934839e+02 	1.073654e+39 	
1.215175e+06 	9.420385e+02 	1.490935e+09 	3.966217e+02 	1.072714e+39 	
1.215601e+06 	9.338495e+02 	1.488525e+09 	3.997833e+02 	1.071775e+39 	
1.216028e+06 	9.257317e+02 	1.486115e+09 	4.029687e+02 	1.070835e+39 	
1.216458e+06 	9.176844e+02 	1.483706e+09 	4.061783e+02 	1.069894e+39 	
1.216889e+06 	9.097071e+02 	1.481297e+09 	4.094120e+02 	1.068954e+39 	
1.217322e+06 	9.017992e+02 	1.478888e+09 	4.126702e+02 	1.068012e+39 	
1.217757e+06 	8.939599e+02 	1.476480e+09 	4.159531e+02 	1.067070e+39 	
1.218194e+06 	8.861889e+02 	1.474072e+09 	4.192606e+02 	1.066128e+39 	
1.218633e+06 	8.784853e+02 	1.471665e+09 	4.225932e+02 	1.065186e+39 	
1.219074e+06 	8.708488e+02 	1.469258e+09 	4.259509e+02 	1.064243e+39 	
1.219516e+06 	8.632786e+02 	1.466852e+09 	4.293339e+02 	1.063299e+39 	
1.219961e+06 	8.557743e+02 	1.464447e+09 	4.327423e+02 	1.062355e+39 	
1.220408e+06 	8.483351e+02 	1.462041e+09 	4.361764e+02 	1.061411e+39 	
1.220856e+06 	8.409607e+02 	1.459637e+09 	4.396364e+02 	1.060467e+39 	
1.221307e+06 	8.336503e+02 	1.457233e+09 	4.431223e+02 	1.059522e+39 	
1.221759e+06 	8.264035e+02 	1.454829e+09 	4.466344e+02 	1.058577e+39 	
1.222213e+06 	8.192197e+02 	1.452426e+09 	4.501729e+02 	1.057631e+39 	
1.222670e+06 	8.120983e+02 	1.450023e+09 	4.537380e+02 	1.056685e+39 	
1.223128e+06 	8.050389e+02 	1.447621e+09 	4.573298e+02 	1.055739e+39 	
1.223588e+06 	7.980408e+02 	1.445220e+09 	4.609486e+02 	1.054792e+39 	
1.224050e+06 	7.911035e+02 	1.442820e+09 	4.645945e+02 	1.053845e+39 	
1.224514e+06 	7.842265e+02 	1.440420e+09 	4.682678e+02 	1.052898e+39 	
1.224980e+06 	7.774094e+02 	1.438021e+09 	4.719685e+02 	1.051951e+39 	
1.225448e+06 	7.706515e+02 	1.435622e+09 	4.756969e+02 	1.051003e+39 	
1.225918e+06 	7.639523e+02 	1.433224e+09 	4.794532e+02 	1.050055e+39 	
1.226391e+06 	7.573113e+02 	1.430827e+09 	4.832376e+02 	1.049107e+39 	
1.226865e+06 	7.507281e+02 	1.428431e+09 	4.870503e+02 	1.048159e+39 	
1.227341e+06 	7.442022e+02 	1.426035e+09 	4.908914e+02 	1.047210e+39 	
1.227819e+06 	7.377329e+02 	1.423640e+09 	4.947612e+02 	1.046261e+39 	
1.228299e+06 	7.313199e+02 	1.421246e+09 	4.986599e+02 	1.045312e+39 	
1.228781e+06 	7.249626e+02 	1.418852e+09 	5.025876e+02 	1.044363e+39 	
1.229265e+06 	7.186606e+02 	1.416460e+09 	5.065447e+02 	1.043413e+39 	
1.229751e+06 	7.124134e+02 	1.414068e+09 	5.105312e+02 	1.042463e+39 	
1.230239e+06 	7.062205e+02 	1.411677e+09 	5.145474e+02 	1.041513e+39 	
1.230729e+06 	7.000814e+02 	1.409287e+09 	5.185935e+02 	1.040563e+39 	
1.231221e+06 	6.939957e+02 	1.406898e+09 	5.226697e+02 	1.039613e+39 	
1.231715e+06 	6.879629e+02 	1.404509e+09 	5.267762e+02 	1.038662e+39 	
1.232212e+06 	6.819825e+02 	1.402122e+09 	5.309132e+02 	1.037712e+39 	
1.232710e+06 	6.760541e+02 	1.399735e+09 	5.350808e+02 	1.036761e+39 	
1.233210e+06 	6.701773e+02 	1.397349e+09 	5.392795e+02 	1.035810e+39 	
1.233713e+06 	6.643515e+02 	1.394964e+09 	5.435092e+02 	1.034859e+39 	
1.234217e+06 	6.585764e+02 	1.392580e+09 	5.477704e+02 	1.033908e+39 	
1.234723e+06 	6.528515e+02 	1.390197e+09 	5.520632e+02 	1.032957e+39 	
1.235232e+06 	6.471764e+02 	1.387815e+09 	5.563877e+02 	1.032006e+39 	
1.235742e+06 	6.415505e+02 	1.385435e+09 	5.607443e+02 	1.031054e+39 	
1.236255e+06 	6.359736e+02 	1.383055e+09 	5.651331e+02 	1.030103e+39 	
1.236770e+06 	6.304452e+02 	1.380676e+09 	5.695543e+02 	1.029151e+39 	
1.237286e+06 	6.249648e+02 	1.378298e+09 	5.740082e+02 	1.028200e+39 	
1.237805e+06 	6.195321e+02 	1.375921e+09 	5.784951e+02 	1.027248e+39 	
1.238326e+06 	6.141466e+02 	1.373545e+09 	5.830150e+02 	1.026296e+39 	
1.238849e+06 	6.088079e+02 	1.371170e+09 	5.875683e+02 	1.025345e+39 	
1.239375e+06 	6.035156e+02 	1.368796e+09 	5.921552e+02 	1.024393e+39 	
1.239902e+06 	5.982693e+02 	1.366424e+09 	5.967759e+02 	1.023441e+39 	
1.240431e+06 	5.930686e+02 	1.364052e+09 	6.014307e+02 	1.022489e+39 	
1.240962e+06 	5.879132e+02 	1.361682e+09 	6.061198e+02 	1.021538e+39 	
1.241496e+06 	5.828025e+02 	1.359313e+09 	6.108434e+02 	1.020586e+39 	
1.242032e+06 	5.777363e+02 	1.356945e+09 	6.156018e+02 	1.019634e+39 	
1.242569e+06 	5.727141e+02 	1.354578e+09 	6.203951e+02 	1.018682e+39 	
1.243109e+06 	5.677356e+02 	1.352212e+09 	6.252237e+02 	1.017730e+39 	
1.243651e+06 	5.628003e+02 	1.349848e+09 	6.300877e+02 	1.016779e+39 	
1.244195e+06 	5.579080e+02 	1.347484e+09 	6.349874e+02 	1.015827e+39 	
1.244742e+06 	5.530582e+02 	1.345122e+09 	6.399231e+02 	1.014875e+39 	
1.245290e+06 	5.482505e+02 	1.342761e+09 	6.448950e+02 	1.013924e+39 	
1.245841e+06 	5.434847e+02 	1.340402e+09 	6.499034e+02 	1.012972e+39 	
1.246393e+06 	5.387602e+02 	1.338043e+09 	6.549485e+02 	1.012021e+39 	
1.246948e+06 	5.340768e+02 	1.335686e+09 	6.600305e+02 	1.011070e+39 	
1.247505e+06 	5.294342e+02 	1.333330e+09 	6.651498e+02 	1.010118e+39 	
1.248064e+06 	5.248319e+02 	1.330976e+09 	6.703065e+02 	1.009167e+39 	
1.248625e+06 	5.202696e+02 	1.328623e+09 	6.755009e+02 	1.008216e+39 	
1.249189e+06 	5.157470e+02 	1.326271e+09 	6.807332e+02 	1.007265e+39 	
1.249754e+06 	5.112636e+02 	1.323921e+09 	6.860038e+02 	1.006314e+39 	
1.250322e+06 	5.068193e+02 	1.321571e+09 	6.913128e+02 	1.005364e+39 	
1.250892e+06 	5.024136e+02 	1.319224e+09 	6.966606e+02 	1.004413e+39 	
1.251464e+06 	4.980462e+02 	1.316877e+09 	7.020474e+02 	1.003463e+39 	
1.252038e+06 	4.937167e+02 	1.314532e+09 	7.074735e+02 	1.002512e+39 	
1.252615e+06 	4.894249e+02 	1.312189e+09 	7.129392e+02 	1.001562e+39 	
1.253193e+06 	4.851704e+02 	1.309847e+09 	7.184446e+02 	1.000612e+39 	
1.253774e+06 	4.809529e+02 	1.307506e+09 	7.239902e+02 	9.996624e+38 	
1.254357e+06 	4.767720e+02 	1.305167e+09 	7.295761e+02 	9.987128e+38 	
1.254942e+06 	4.726275e+02 	1.302829e+09 	7.352026e+02 	9.977633e+38 	
1.255530e+06 	4.685190e+02 	1.300493e+09 	7.408700e+02 	9.968141e+38 	
1.256119e+06 	4.644463e+02 	1.298158e+09 	7.465785e+02 	9.958650e+38 	
1.256711e+06 	4.604089e+02 	1.295824e+09 	7.523284e+02 	9.949162e+38 	
1.257305e+06 	4.564066e+02 	1.293492e+09 	7.581201e+02 	9.939676e+38 	
1.257902e+06 	4.524391e+02 	1.291162e+09 	7.639539e+02 	9.930192e+38 	
1.258500e+06 	4.485061e+02 	1.288833e+09 	7.698299e+02 	9.920710e+38 	
1.259101e+06 	4.446073e+02 	1.286506e+09 	7.757486e+02 	9.911230e+38 	
1.259704e+06 	4.407424e+02 	1.284181e+09 	7.817101e+02 	9.901753e+38 	
1.260309e+06 	4.369111e+02 	1.281857e+09 	7.877148e+02 	9.892278e+38 	
1.260916e+06 	4.331131e+02 	1.279534e+09 	7.937629e+02 	9.882806e+38 	
1.261526e+06 	4.293481e+02 	1.277213e+09 	7.998548e+02 	9.873336e+38 	
1.262138e+06 	4.256158e+02 	1.274894e+09 	8.059906e+02 	9.863869e+38 	
1.262752e+06 	4.219160e+02 	1.272576e+09 	8.121708e+02 	9.854405e+38 	
1.263368e+06 	4.182484e+02 	1.270260e+09 	8.183956e+02 	9.844943e+38 	
1.263987e+06 	4.146126e+02 	1.267946e+09 	8.246653e+02 	9.835485e+38 	
1.264608e+06 	4.110084e+02 	1.265633e+09 	8.309803e+02 	9.826030e+38 	
1.265231e+06 	4.074356e+02 	1.263322e+09 	8.373408e+02 	9.816577e+38 	
1.265856e+06 	4.038938e+02 	1.261013e+09 	8.437472e+02 	9.807127e+38 	
1.266483e+06 	4.003828e+02 	1.258706e+09 	8.501997e+02 	9.797681e+38 	
1.267113e+06 	3.969023e+02 	1.256400e+09 	8.566987e+02 	9.788237e+38 	
1.267745e+06 	3.934521e+02 	1.254096e+09 	8.632445e+02 	9.778797e+38 	
1.268380e+06 	3.900319e+02 	1.251793e+09 	8.698373e+02 	9.769360e+38 	
1.269017e+06 	3.866414e+02 	1.249493e+09 	8.764775e+02 	9.759927e+38 	
1.269656e+06 	3.832804e+02 	1.247194e+09 	8.831653e+02 	9.750497e+38 	
1.270297e+06 	3.799486e+02 	1.244896e+09 	8.899012e+02 	9.741071e+38 	
1.270941e+06 	3.766457e+02 	1.242601e+09 	8.966854e+02 	9.731648e+38 	
1.271586e+06 	3.733716e+02 	1.240307e+09 	9.035184e+02 	9.722229e+38 	
1.272235e+06 	3.701259e+02 	1.238016e+09 	9.104003e+02 	9.712813e+38 	
1.272885e+06 	3.669085e+02 	1.235726e+09 	9.173317e+02 	9.703401e+38 	
1.273538e+06 	3.637190e+02 	1.233438e+09 	9.243126e+02 	9.693993e+38 	
1.274193e+06 	3.605572e+02 	1.231151e+09 	9.313436e+02 	9.684589e+38 	
1.274850e+06 	3.574229e+02 	1.228867e+09 	9.384249e+02 	9.675189e+38 	
1.275510e+06 	3.543159e+02 	1.226584e+09 	9.455567e+02 	9.665792e+38 	
1.276172e+06 	3.512359e+02 	1.224304e+09 	9.527396e+02 	9.656400e+38 	
1.276836e+06 	3.481826e+02 	1.222025e+09 	9.599738e+02 	9.647012e+38 	
1.277503e+06 	3.451559e+02 	1.219748e+09 	9.672596e+02 	9.637628e+38 	
1.278172e+06 	3.421555e+02 	1.217473e+09 	9.745974e+02 	9.628248e+38 	
1.278843e+06 	3.391812e+02 	1.215200e+09 	9.819876e+02 	9.618873e+38 	
1.279517e+06 	3.362328e+02 	1.212929e+09 	9.894306e+02 	9.609502e+38 	
1.280192e+06 	3.333100e+02 	1.210659e+09 	9.969267e+02 	9.600135e+38 	
1.280871e+06 	3.304125e+02 	1.208392e+09 	1.004476e+03 	9.590772e+38 	
1.281551e+06 	3.275403e+02 	1.206127e+09 	1.012079e+03 	9.581414e+38 	
1.282234e+06 	3.246930e+02 	1.203863e+09 	1.019737e+03 	9.572061e+38 	
1.282920e+06 	3.218705e+02 	1.201602e+09 	1.027448e+03 	9.562712e+38 	
1.283607e+06 	3.190725e+02 	1.199343e+09 	1.035215e+03 	9.553368e+38 	
1.284297e+06 	3.162989e+02 	1.197085e+09 	1.043037e+03 	9.544028e+38 	
1.284990e+06 	3.135494e+02 	1.194830e+09 	1.050914e+03 	9.534694e+38 	
1.285685e+06 	3.108237e+02 	1.192577e+09 	1.058847e+03 	9.525364e+38 	
1.286382e+06 	3.081218e+02 	1.190325e+09 	1.066837e+03 	9.516039e+38 	
1.287081e+06 	3.054433e+02 	1.188076e+09 	1.074883e+03 	9.506720e+38 	
1.287783e+06 	3.027881e+02 	1.185829e+09 	1.082987e+03 	9.497404e+38 	
1.288487e+06 	3.001560e+02 	1.183584e+09 	1.091147e+03 	9.488094e+38 	
1.289194e+06 	2.975468e+02 	1.181341e+09 	1.099366e+03 	9.478789e+38 	
1.289903e+06 	2.949603e+02 	1.179100e+09 	1.107643e+03 	9.469489e+38 	
1.290614e+06 	2.923962e+02 	1.176861e+09 	1.115978e+03 	9.460194e+38 	
1.291328e+06 	2.898545e+02 	1.174624e+09 	1.124372e+03 	9.450905e+38 	
1.292044e+06 	2.873348e+02 	1.172389e+09 	1.132826e+03 	9.441621e+38 	
1.292763e+06 	2.848370e+02 	1.170156e+09 	1.141339e+03 	9.432342e+38 	
1.293484e+06 	2.823610e+02 	1.167926e+09 	1.149913e+03 	9.423069e+38 	
1.294207e+06 	2.799065e+02 	1.165698e+09 	1.158546e+03 	9.413801e+38 	
1.294933e+06 	2.774733e+02 	1.163471e+09 	1.167241e+03 	9.404539e+38 	
1.295661e+06 	2.750612e+02 	1.161247e+09 	1.175998e+03 	9.395281e+38 	
1.296392e+06 	2.726702e+02 	1.159026e+09 	1.184816e+03 	9.386030e+38 	
1.297125e+06 	2.702999e+02 	1.156806e+09 	1.193696e+03 	9.376784e+38 	
1.297860e+06 	2.679502e+02 	1.154589e+09 	1.202638e+03 	9.367544e+38 	
1.298598e+06 	2.656209e+02 	1.152373e+09 	1.211644e+03 	9.358309e+38 	
1.299338e+06 	2.633119e+02 	1.150160e+09 	1.220713e+03 	9.349080e+38 	
1.300081e+06 	2.610230e+02 	1.147949e+09 	1.229845e+03 	9.339857e+38 	
1.300826e+06 	2.587540e+02 	1.145741e+09 	1.239042e+03 	9.330641e+38 	
1.301574e+06 	2.565047e+02 	1.143534e+09 	1.248304e+03 	9.321430e+38 	
1.302324e+06 	2.542749e+02 	1.141330e+09 	1.257630e+03 	9.312225e+38 	
1.303076e+06 	2.520645e+02 	1.139128e+09 	1.267022e+03 	9.303026e+38 	
1.303831e+06 	2.498733e+02 	1.136928e+09 	1.276480e+03 	9.293832e+38 	
1.304589e+06 	2.477012e+02 	1.134731e+09 	1.286004e+03 	9.284645e+38 	
1.305348e+06 	2.455480e+02 	1.132536e+09 	1.295595e+03 	9.275464e+38 	
1.306111e+06 	2.434135e+02 	1.130343e+09 	1.305253e+03 	9.266289e+38 	
1.306875e+06 	2.412975e+02 	1.128152e+09 	1.314979e+03 	9.257120e+38 	
1.307643e+06 	2.392000e+02 	1.125964e+09 	1.324773e+03 	9.247958e+38 	
1.308412e+06 	2.371206e+02 	1.123778e+09 	1.334635e+03 	9.238802e+38 	
1.309185e+06 	2.350594e+02 	1.121594e+09 	1.344566e+03 	9.229652e+38 	
1.309959e+06 	2.330160e+02 	1.119413e+09 	1.354567e+03 	9.220509e+38 	
1.310736e+06 	2.309905e+02 	1.117234e+09 	1.364637e+03 	9.211373e+38 	
1.311516e+06 	2.289825e+02 	1.115057e+09 	1.374778e+03 	9.202242e+38 	
1.312298e+06 	2.269920e+02 	1.112883e+09 	1.384989e+03 	9.193118e+38 	
1.313082e+06 	2.250188e+02 	1.110711e+09 	1.395272e+03 	9.184001e+38 	
1.313869e+06 	2.230627e+02 	1.108542e+09 	1.405627e+03 	9.174890e+38 	
1.314659e+06 	2.211236e+02 	1.106374e+09 	1.416053e+03 	9.165785e+38 	
1.315451e+06 	2.192014e+02 	1.104210e+09 	1.426553e+03 	9.156688e+38 	
1.316246e+06 	2.172960e+02 	1.102047e+09 	1.437125e+03 	9.147597e+38 	
1.317043e+06 	2.154070e+02 	1.099887e+09 	1.447771e+03 	9.138513e+38 	
1.317842e+06 	2.135345e+02 	1.097729e+09 	1.458491e+03 	9.129436e+38 	
1.318644e+06 	2.116783e+02 	1.095574e+09 	1.469285e+03 	9.120366e+38 	
1.319449e+06 	2.098382e+02 	1.093421e+09 	1.480154e+03 	9.111302e+38 	
1.320256e+06 	2.080141e+02 	1.091271e+09 	1.491099e+03 	9.102246e+38 	
1.321066e+06 	2.062059e+02 	1.089123e+09 	1.502120e+03 	9.093196e+38 	
1.321878e+06 	2.044134e+02 	1.086977e+09 	1.513218e+03 	9.084153e+38 	
1.322692e+06 	2.026364e+02 	1.084834e+09 	1.524392e+03 	9.075117e+38 	
1.323509e+06 	2.008749e+02 	1.082693e+09 	1.535644e+03 	9.066088e+38 	
1.324329e+06 	1.991288e+02 	1.080555e+09 	1.546974e+03 	9.057066e+38 	
1.325151e+06 	1.973978e+02 	1.078419e+09 	1.558382e+03 	9.048052e+38 	
1.325976e+06 	1.956818e+02 	1.076286e+09 	1.569869e+03 	9.039044e+38 	
1.326804e+06 	1.939808e+02 	1.074155e+09 	1.581436e+03 	9.030044e+38 	
1.327634e+06 	1.922945e+02 	1.072027e+09 	1.593083e+03 	9.021052e+38 	
1.328466e+06 	1.906229e+02 	1.069901e+09 	1.604810e+03 	9.012066e+38 	
1.329301e+06 	1.889659e+02 	1.067778e+09 	1.616618e+03 	9.003088e+38 	
1.330139e+06 	1.873232e+02 	1.065657e+09 	1.628508e+03 	8.994117e+38 	
1.330979e+06 	1.856948e+02 	1.063539e+09 	1.640480e+03 	8.985153e+38 	
1.331821e+06 	1.840806e+02 	1.061423e+09 	1.652534e+03 	8.976196e+38 	
1.332667e+06 	1.824804e+02 	1.059310e+09 	1.664672e+03 	8.967247e+38 	
1.333515e+06 	1.808942e+02 	1.057199e+09 	1.676893e+03 	8.958306e+38 	
1.334365e+06 	1.793217e+02 	1.055091e+09 	1.689199e+03 	8.949372e+38 	
1.335218e+06 	1.777628e+02 	1.052985e+09 	1.701589e+03 	8.940445e+38 	
1.336074e+06 	1.762176e+02 	1.050882e+09 	1.714064e+03 	8.931527e+38 	
1.336932e+06 	1.746857e+02 	1.048781e+09 	1.726626e+03 	8.922616e+38 	
1.337793e+06 	1.731672e+02 	1.046683e+09 	1.739273e+03 	8.913712e+38 	
1.338656e+06 	1.716619e+02 	1.044588e+09 	1.752008e+03 	8.904816e+38 	
1.339522e+06 	1.701697e+02 	1.042495e+09 	1.764831e+03 	8.895928e+38 	
1.340390e+06 	1.686904e+02 	1.040405e+09 	1.777741e+03 	8.887047e+38 	
1.341262e+06 	1.672240e+02 	1.038317e+09 	1.790740e+03 	8.878174e+38 	
1.342135e+06 	1.657703e+02 	1.036232e+09 	1.803828e+03 	8.869309e+38 	
1.343012e+06 	1.643293e+02 	1.034150e+09 	1.817006e+03 	8.860452e+38 	
1.343891e+06 	1.629008e+02 	1.032070e+09 	1.830274e+03 	8.851603e+38 	
1.344772e+06 	1.614848e+02 	1.029992e+09 	1.843633e+03 	8.842761e+38 	
1.345657e+06 	1.600810e+02 	1.027917e+09 	1.857083e+03 	8.833928e+38 	
1.346544e+06 	1.586894e+02 	1.025845e+09 	1.870626e+03 	8.825102e+38 	
1.347433e+06 	1.573100e+02 	1.023776e+09 	1.884261e+03 	8.816285e+38 	
1.348325e+06 	1.559425e+02 	1.021709e+09 	1.897990e+03 	8.807475e+38 	
1.349220e+06 	1.545869e+02 	1.019645e+09 	1.911813e+03 	8.798674e+38 	
1.350117e+06 	1.532431e+02 	1.017583e+09 	1.925730e+03 	8.789880e+38 	
1.351017e+06 	1.519110e+02 	1.015524e+09 	1.939742e+03 	8.781094e+38 	
1.351920e+06 	1.505904e+02 	1.013468e+09 	1.953849e+03 	8.772316e+38 	
1.352825e+06 	1.492814e+02 	1.011415e+09 	1.968053e+03 	8.763547e+38 	
1.353733e+06 	1.479837e+02 	1.009364e+09 	1.982354e+03 	8.754786e+38 	
1.354644e+06 	1.466973e+02 	1.007315e+09 	1.996752e+03 	8.746033e+38 	
1.355557e+06 	1.454221e+02 	1.005270e+09 	2.011248e+03 	8.737288e+38 	
1.356473e+06 	1.441579e+02 	1.003227e+09 	2.025843e+03 	8.728552e+38 	
1.357392e+06 	1.429048e+02 	1.001186e+09 	2.040538e+03 	8.719824e+38 	
1.358313e+06 	1.416625e+02 	9.991487e+08 	2.055333e+03 	8.711104e+38 	
1.359237e+06 	1.404311e+02 	9.971138e+08 	2.070228e+03 	8.702392e+38 	
1.360164e+06 	1.392103e+02 	9.950816e+08 	2.085224e+03 	8.693689e+38 	
1.361093e+06 	1.380002e+02 	9.930521e+08 	2.100323e+03 	8.684993e+38 	
1.362025e+06 	1.368006e+02 	9.910253e+08 	2.115524e+03 	8.676307e+38 	
1.362960e+06 	1.356114e+02 	9.890012e+08 	2.130828e+03 	8.667628e+38 	
1.363897e+06 	1.344325e+02 	9.869797e+08 	2.146236e+03 	8.658959e+38 	
1.364837e+06 	1.332639e+02 	9.849610e+08 	2.161748e+03 	8.650297e+38 	
1.365780e+06 	1.321055e+02 	9.829449e+08 	2.177366e+03 	8.641645e+38 	
1.366726e+06 	1.309571e+02 	9.809316e+08 	2.193089e+03 	8.633001e+38 	
1.367674e+06 	1.298187e+02 	9.789211e+08 	2.208919e+03 	8.624365e+38 	
1.368625e+06 	1.286902e+02 	9.769133e+08 	2.224857e+03 	8.615738e+38 	
1.369578e+06 	1.275715e+02 	9.749082e+08 	2.240902e+03 	8.607119e+38 	
1.370535e+06 	1.264626e+02 	9.729059e+08 	2.257056e+03 	8.598509e+38 	
1.371494e+06 	1.253633e+02 	9.709063e+08 	2.273319e+03 	8.589907e+38 	
1.372456e+06 	1.242735e+02 	9.689094e+08 	2.289692e+03 	8.581314e+38 	
1.373420e+06 	1.231932e+02 	9.669153e+08 	2.306175e+03 	8.572730e+38 	
1.374388e+06 	1.221223e+02 	9.649239e+08 	2.322770e+03 	8.564155e+38 	
1.375358e+06 	1.210607e+02 	9.629353e+08 	2.339476e+03 	8.555588e+38 	
1.376330e+06 	1.200083e+02 	9.609494e+08 	2.356296e+03 	8.547031e+38 	
1.377306e+06 	1.189651e+02 	9.589663e+08 	2.373229e+03 	8.538481e+38 	
1.378284e+06 	1.179310e+02 	9.569860e+08 	2.390276e+03 	8.529941e+38 	
1.379265e+06 	1.169058e+02 	9.550084e+08 	2.407438e+03 	8.521409e+38 	
1.380249e+06 	1.158896e+02 	9.530337e+08 	2.424716e+03 	8.512887e+38 	
