r (cm)      	rho (g/cm3) 	T (K)       	u (cm/s)    	L* (erg/s)  			 Edot= 6.426723e+38
9.999988e+05 	1.388204e+05 	1.470343e+09 	2.371604e-01 	4.252964e+38 	
1.000005e+06 	1.373101e+05 	1.466474e+09 	2.397652e-01 	4.252960e+38 	
1.000012e+06 	1.358162e+05 	1.462616e+09 	2.423986e-01 	4.252956e+38 	
1.000019e+06 	1.343386e+05 	1.458769e+09 	2.450610e-01 	4.252952e+38 	
1.000025e+06 	1.328770e+05 	1.454933e+09 	2.477526e-01 	4.252948e+38 	
1.000032e+06 	1.314314e+05 	1.451108e+09 	2.504737e-01 	4.252944e+38 	
1.000039e+06 	1.300015e+05 	1.447294e+09 	2.532248e-01 	4.252940e+38 	
1.000045e+06 	1.285871e+05 	1.443490e+09 	2.560061e-01 	4.252936e+38 	
1.000052e+06 	1.271882e+05 	1.439698e+09 	2.588179e-01 	4.252932e+38 	
1.000058e+06 	1.258044e+05 	1.435916e+09 	2.616607e-01 	4.252928e+38 	
1.000065e+06 	1.244357e+05 	1.432145e+09 	2.645346e-01 	4.252924e+38 	
1.000072e+06 	1.230819e+05 	1.428385e+09 	2.674401e-01 	4.252920e+38 	
1.000078e+06 	1.217429e+05 	1.424635e+09 	2.703776e-01 	4.252916e+38 	
1.000085e+06 	1.204184e+05 	1.420896e+09 	2.733473e-01 	4.252912e+38 	
1.000091e+06 	1.191083e+05 	1.417168e+09 	2.763496e-01 	4.252908e+38 	
1.000098e+06 	1.178124e+05 	1.413450e+09 	2.793850e-01 	4.252904e+38 	
1.000104e+06 	1.165307e+05 	1.409743e+09 	2.824536e-01 	4.252900e+38 	
1.000111e+06 	1.152629e+05 	1.406047e+09 	2.855560e-01 	4.252896e+38 	
1.000117e+06 	1.140089e+05 	1.402361e+09 	2.886925e-01 	4.252892e+38 	
1.000124e+06 	1.127685e+05 	1.398685e+09 	2.918634e-01 	4.252888e+38 	
1.000130e+06 	1.115417e+05 	1.395020e+09 	2.950691e-01 	4.252884e+38 	
1.000137e+06 	1.103282e+05 	1.391366e+09 	2.983101e-01 	4.252880e+38 	
1.000143e+06 	1.091278e+05 	1.387722e+09 	3.015867e-01 	4.252876e+38 	
1.000150e+06 	1.079406e+05 	1.384088e+09 	3.048992e-01 	4.252872e+38 	
1.000156e+06 	1.067662e+05 	1.380465e+09 	3.082482e-01 	4.252868e+38 	
1.000162e+06 	1.056047e+05 	1.376851e+09 	3.116340e-01 	4.252864e+38 	
1.000169e+06 	1.044557e+05 	1.373249e+09 	3.150569e-01 	4.252860e+38 	
1.000175e+06 	1.033193e+05 	1.369656e+09 	3.185175e-01 	4.252856e+38 	
1.000182e+06 	1.021953e+05 	1.366074e+09 	3.220160e-01 	4.252852e+38 	
1.000188e+06 	1.010834e+05 	1.362501e+09 	3.255530e-01 	4.252848e+38 	
1.000195e+06 	9.998368e+04 	1.358940e+09 	3.291289e-01 	4.252844e+38 	
1.000201e+06 	9.889591e+04 	1.355388e+09 	3.327440e-01 	4.252840e+38 	
1.000207e+06 	9.781997e+04 	1.351846e+09 	3.363989e-01 	4.252836e+38 	
1.000214e+06 	9.675574e+04 	1.348315e+09 	3.400939e-01 	4.252832e+38 	
1.000220e+06 	9.570308e+04 	1.344793e+09 	3.438295e-01 	4.252828e+38 	
1.000226e+06 	9.466188e+04 	1.341281e+09 	3.476061e-01 	4.252824e+38 	
1.000233e+06 	9.363201e+04 	1.337780e+09 	3.514243e-01 	4.252820e+38 	
1.000239e+06 	9.261334e+04 	1.334288e+09 	3.552844e-01 	4.252816e+38 	
1.000245e+06 	9.160575e+04 	1.330807e+09 	3.591868e-01 	4.252812e+38 	
1.000252e+06 	9.060912e+04 	1.327335e+09 	3.631322e-01 	4.252808e+38 	
1.000258e+06 	8.962334e+04 	1.323874e+09 	3.671209e-01 	4.252804e+38 	
1.000264e+06 	8.864828e+04 	1.320422e+09 	3.711534e-01 	4.252800e+38 	
1.000271e+06 	8.768383e+04 	1.316980e+09 	3.752303e-01 	4.252796e+38 	
1.000277e+06 	8.672987e+04 	1.313548e+09 	3.793519e-01 	4.252792e+38 	
1.000283e+06 	8.578630e+04 	1.310125e+09 	3.835188e-01 	4.252788e+38 	
1.000289e+06 	8.485298e+04 	1.306713e+09 	3.877314e-01 	4.252784e+38 	
1.000296e+06 	8.392982e+04 	1.303310e+09 	3.919904e-01 	4.252780e+38 	
1.000302e+06 	8.301671e+04 	1.299916e+09 	3.962961e-01 	4.252776e+38 	
1.000308e+06 	8.211353e+04 	1.296533e+09 	4.006492e-01 	4.252772e+38 	
1.000314e+06 	8.122017e+04 	1.293159e+09 	4.050500e-01 	4.252768e+38 	
1.000321e+06 	8.033654e+04 	1.289795e+09 	4.094992e-01 	4.252764e+38 	
1.000327e+06 	7.946252e+04 	1.286440e+09 	4.139973e-01 	4.252760e+38 	
1.000333e+06 	7.859800e+04 	1.283095e+09 	4.185448e-01 	4.252756e+38 	
1.000339e+06 	7.774289e+04 	1.279760e+09 	4.231423e-01 	4.252752e+38 	
1.000345e+06 	7.689709e+04 	1.276434e+09 	4.277903e-01 	4.252748e+38 	
1.000352e+06 	7.606049e+04 	1.273117e+09 	4.324893e-01 	4.252744e+38 	
1.000358e+06 	7.523299e+04 	1.269810e+09 	4.372400e-01 	4.252740e+38 	
1.000364e+06 	7.441449e+04 	1.266512e+09 	4.420429e-01 	4.252736e+38 	
1.000370e+06 	7.360490e+04 	1.263224e+09 	4.468985e-01 	4.252732e+38 	
1.000376e+06 	7.280411e+04 	1.259945e+09 	4.518075e-01 	4.252728e+38 	
1.000382e+06 	7.201204e+04 	1.256676e+09 	4.567704e-01 	4.252724e+38 	
1.000389e+06 	7.122858e+04 	1.253416e+09 	4.617878e-01 	4.252720e+38 	
1.000395e+06 	7.045365e+04 	1.250165e+09 	4.668603e-01 	4.252716e+38 	
1.000401e+06 	6.968715e+04 	1.246923e+09 	4.719886e-01 	4.252712e+38 	
1.000407e+06 	6.892899e+04 	1.243691e+09 	4.771732e-01 	4.252708e+38 	
1.000413e+06 	6.817907e+04 	1.240468e+09 	4.824148e-01 	4.252704e+38 	
1.000419e+06 	6.743732e+04 	1.237254e+09 	4.877140e-01 	4.252700e+38 	
1.000425e+06 	6.670363e+04 	1.234050e+09 	4.930714e-01 	4.252696e+38 	
1.000431e+06 	6.597793e+04 	1.230854e+09 	4.984876e-01 	4.252692e+38 	
1.000437e+06 	6.526012e+04 	1.227668e+09 	5.039633e-01 	4.252688e+38 	
1.000443e+06 	6.455013e+04 	1.224491e+09 	5.094992e-01 	4.252684e+38 	
1.000449e+06 	6.384785e+04 	1.221323e+09 	5.150960e-01 	4.252680e+38 	
1.000455e+06 	6.315322e+04 	1.218163e+09 	5.207542e-01 	4.252676e+38 	
1.000462e+06 	6.246614e+04 	1.215013e+09 	5.264746e-01 	4.252672e+38 	
1.000468e+06 	6.178654e+04 	1.211872e+09 	5.322578e-01 	4.252668e+38 	
1.000474e+06 	6.111433e+04 	1.208740e+09 	5.381045e-01 	4.252664e+38 	
1.000480e+06 	6.044944e+04 	1.205617e+09 	5.440155e-01 	4.252660e+38 	
1.000486e+06 	5.979178e+04 	1.202503e+09 	5.499915e-01 	4.252656e+38 	
1.000492e+06 	5.914127e+04 	1.199397e+09 	5.560331e-01 	4.252652e+38 	
1.000498e+06 	5.849785e+04 	1.196301e+09 	5.621410e-01 	4.252648e+38 	
1.000504e+06 	5.786142e+04 	1.193213e+09 	5.683161e-01 	4.252644e+38 	
1.000510e+06 	5.723192e+04 	1.190135e+09 	5.745590e-01 	4.252640e+38 	
1.000516e+06 	5.660926e+04 	1.187065e+09 	5.808705e-01 	4.252636e+38 	
1.000522e+06 	5.599338e+04 	1.184003e+09 	5.872513e-01 	4.252632e+38 	
1.000528e+06 	5.538420e+04 	1.180951e+09 	5.937023e-01 	4.252628e+38 	
1.000533e+06 	5.478165e+04 	1.177907e+09 	6.002241e-01 	4.252624e+38 	
1.000539e+06 	5.418565e+04 	1.174872e+09 	6.068176e-01 	4.252620e+38 	
1.000545e+06 	5.359614e+04 	1.171846e+09 	6.134835e-01 	4.252616e+38 	
1.000551e+06 	5.301304e+04 	1.168829e+09 	6.202226e-01 	4.252612e+38 	
1.000557e+06 	5.243628e+04 	1.165820e+09 	6.270358e-01 	4.252608e+38 	
1.000563e+06 	5.186580e+04 	1.162819e+09 	6.339238e-01 	4.252604e+38 	
1.000569e+06 	5.130152e+04 	1.159827e+09 	6.408876e-01 	4.252600e+38 	
1.000575e+06 	5.074339e+04 	1.156844e+09 	6.479278e-01 	4.252596e+38 	
1.000581e+06 	5.019133e+04 	1.153869e+09 	6.550454e-01 	4.252592e+38 	
1.000587e+06 	4.964527e+04 	1.150903e+09 	6.622411e-01 	4.252588e+38 	
1.000593e+06 	4.910515e+04 	1.147946e+09 	6.695160e-01 	4.252584e+38 	
1.000599e+06 	4.857091e+04 	1.144996e+09 	6.768707e-01 	4.252580e+38 	
1.000604e+06 	4.804249e+04 	1.142056e+09 	6.843063e-01 	4.252576e+38 	
1.000610e+06 	4.751981e+04 	1.139123e+09 	6.918235e-01 	4.252572e+38 	
1.000616e+06 	4.700281e+04 	1.136199e+09 	6.994234e-01 	4.252568e+38 	
1.000622e+06 	4.649145e+04 	1.133284e+09 	7.071067e-01 	4.252564e+38 	
1.000628e+06 	4.598564e+04 	1.130377e+09 	7.148744e-01 	4.252560e+38 	
1.000634e+06 	4.548534e+04 	1.127478e+09 	7.227275e-01 	4.252556e+38 	
1.000640e+06 	4.499048e+04 	1.124587e+09 	7.306669e-01 	4.252552e+38 	
1.000645e+06 	4.450101e+04 	1.121705e+09 	7.386935e-01 	4.252548e+38 	
1.000651e+06 	4.401686e+04 	1.118831e+09 	7.468083e-01 	4.252544e+38 	
1.000657e+06 	4.353798e+04 	1.115965e+09 	7.550122e-01 	4.252540e+38 	
1.000663e+06 	4.306431e+04 	1.113108e+09 	7.633063e-01 	4.252536e+38 	
1.000669e+06 	4.259579e+04 	1.110258e+09 	7.716915e-01 	4.252532e+38 	
1.000674e+06 	4.213237e+04 	1.107417e+09 	7.801689e-01 	4.252528e+38 	
1.000680e+06 	4.167399e+04 	1.104584e+09 	7.887393e-01 	4.252524e+38 	
1.000686e+06 	4.122059e+04 	1.101759e+09 	7.974040e-01 	4.252520e+38 	
1.000692e+06 	4.077213e+04 	1.098942e+09 	8.061638e-01 	4.252516e+38 	
1.000697e+06 	4.032855e+04 	1.096134e+09 	8.150199e-01 	4.252512e+38 	
1.000703e+06 	3.988980e+04 	1.093333e+09 	8.239732e-01 	4.252508e+38 	
1.000709e+06 	3.945582e+04 	1.090540e+09 	8.330250e-01 	4.252504e+38 	
1.000715e+06 	3.902656e+04 	1.087756e+09 	8.421762e-01 	4.252500e+38 	
1.000721e+06 	3.860197e+04 	1.084979e+09 	8.514279e-01 	4.252496e+38 	
1.000726e+06 	3.818200e+04 	1.082210e+09 	8.607813e-01 	4.252492e+38 	
1.000732e+06 	3.776660e+04 	1.079450e+09 	8.702374e-01 	4.252488e+38 	
1.000738e+06 	3.735571e+04 	1.076697e+09 	8.797974e-01 	4.252484e+38 	
1.000743e+06 	3.694930e+04 	1.073952e+09 	8.894625e-01 	4.252480e+38 	
1.000749e+06 	3.654731e+04 	1.071215e+09 	8.992338e-01 	4.252476e+38 	
1.000755e+06 	3.614969e+04 	1.068486e+09 	9.091124e-01 	4.252472e+38 	
1.000761e+06 	3.575640e+04 	1.065765e+09 	9.190996e-01 	4.252468e+38 	
1.000766e+06 	3.536739e+04 	1.063051e+09 	9.291964e-01 	4.252464e+38 	
1.000772e+06 	3.498261e+04 	1.060346e+09 	9.394043e-01 	4.252460e+38 	
1.000778e+06 	3.460202e+04 	1.057648e+09 	9.497242e-01 	4.252456e+38 	
1.000783e+06 	3.422557e+04 	1.054958e+09 	9.601576e-01 	4.252452e+38 	
1.000789e+06 	3.385321e+04 	1.052275e+09 	9.707056e-01 	4.252448e+38 	
1.000795e+06 	3.348490e+04 	1.049601e+09 	9.813694e-01 	4.252444e+38 	
1.000800e+06 	3.312060e+04 	1.046934e+09 	9.921505e-01 	4.252440e+38 	
1.000806e+06 	3.276027e+04 	1.044274e+09 	1.003050e+00 	4.252436e+38 	
1.000812e+06 	3.240385e+04 	1.041623e+09 	1.014069e+00 	4.252432e+38 	
1.000817e+06 	3.205131e+04 	1.038978e+09 	1.025210e+00 	4.252428e+38 	
1.000823e+06 	3.170261e+04 	1.036342e+09 	1.036472e+00 	4.252424e+38 	
1.000828e+06 	3.135770e+04 	1.033713e+09 	1.047859e+00 	4.252420e+38 	
1.000834e+06 	3.101655e+04 	1.031092e+09 	1.059370e+00 	4.252415e+38 	
1.000840e+06 	3.067910e+04 	1.028478e+09 	1.071008e+00 	4.252411e+38 	
1.000845e+06 	3.034533e+04 	1.025872e+09 	1.082774e+00 	4.252407e+38 	
1.000851e+06 	3.001518e+04 	1.023273e+09 	1.094669e+00 	4.252403e+38 	
1.000857e+06 	2.968863e+04 	1.020682e+09 	1.106695e+00 	4.252399e+38 	
1.000862e+06 	2.936564e+04 	1.018098e+09 	1.118853e+00 	4.252395e+38 	
1.000868e+06 	2.904615e+04 	1.015522e+09 	1.131145e+00 	4.252391e+38 	
1.000873e+06 	2.873014e+04 	1.012953e+09 	1.143571e+00 	4.252387e+38 	
1.000879e+06 	2.841757e+04 	1.010391e+09 	1.156135e+00 	4.252383e+38 	
1.000884e+06 	2.810841e+04 	1.007837e+09 	1.168836e+00 	4.252379e+38 	
1.000890e+06 	2.780260e+04 	1.005290e+09 	1.181677e+00 	4.252375e+38 	
1.000896e+06 	2.750012e+04 	1.002751e+09 	1.194658e+00 	4.252371e+38 	
1.000901e+06 	2.720093e+04 	1.000219e+09 	1.207783e+00 	4.252367e+38 	
1.000907e+06 	2.690500e+04 	9.976937e+08 	1.221051e+00 	4.252363e+38 	
1.000912e+06 	2.661229e+04 	9.951762e+08 	1.234466e+00 	4.252358e+38 	
1.000918e+06 	2.632276e+04 	9.926659e+08 	1.248028e+00 	4.252354e+38 	
1.000923e+06 	2.603638e+04 	9.901628e+08 	1.261739e+00 	4.252350e+38 	
1.000929e+06 	2.575312e+04 	9.876668e+08 	1.275600e+00 	4.252346e+38 	
1.000934e+06 	2.547294e+04 	9.851781e+08 	1.289614e+00 	4.252342e+38 	
1.000940e+06 	2.519580e+04 	9.826966e+08 	1.303782e+00 	4.252338e+38 	
1.000945e+06 	2.492168e+04 	9.802223e+08 	1.318105e+00 	4.252334e+38 	
1.000951e+06 	2.465055e+04 	9.777552e+08 	1.332586e+00 	4.252330e+38 	
1.000956e+06 	2.438236e+04 	9.752952e+08 	1.347226e+00 	4.252326e+38 	
1.000962e+06 	2.411710e+04 	9.728422e+08 	1.362026e+00 	4.252322e+38 	
1.000967e+06 	2.385471e+04 	9.703963e+08 	1.376990e+00 	4.252317e+38 	
1.000973e+06 	2.359519e+04 	9.679575e+08 	1.392117e+00 	4.252313e+38 	
1.000978e+06 	2.333848e+04 	9.655257e+08 	1.407411e+00 	4.252309e+38 	
1.000984e+06 	2.308457e+04 	9.631009e+08 	1.422873e+00 	4.252305e+38 	
1.000989e+06 	2.283342e+04 	9.606831e+08 	1.438505e+00 	4.252301e+38 	
1.000995e+06 	2.258501e+04 	9.582724e+08 	1.454309e+00 	4.252297e+38 	
1.001000e+06 	2.233929e+04 	9.558687e+08 	1.470286e+00 	4.252293e+38 	
1.001006e+06 	2.209625e+04 	9.534718e+08 	1.486439e+00 	4.252289e+38 	
1.001011e+06 	2.185585e+04 	9.510819e+08 	1.502769e+00 	4.252284e+38 	
1.001017e+06 	2.161807e+04 	9.486989e+08 	1.519279e+00 	4.252280e+38 	
1.001022e+06 	2.138288e+04 	9.463228e+08 	1.535970e+00 	4.252276e+38 	
1.001028e+06 	2.115024e+04 	9.439535e+08 	1.552845e+00 	4.252272e+38 	
1.001033e+06 	2.092014e+04 	9.415910e+08 	1.569905e+00 	4.252268e+38 	
1.001038e+06 	2.069254e+04 	9.392354e+08 	1.587152e+00 	4.252264e+38 	
1.001044e+06 	2.046741e+04 	9.368867e+08 	1.604589e+00 	4.252260e+38 	
1.001049e+06 	2.024474e+04 	9.345448e+08 	1.622217e+00 	4.252255e+38 	
1.001055e+06 	2.002449e+04 	9.322096e+08 	1.640040e+00 	4.252251e+38 	
1.001060e+06 	1.980663e+04 	9.298812e+08 	1.658058e+00 	4.252247e+38 	
1.001066e+06 	1.959114e+04 	9.275596e+08 	1.676273e+00 	4.252243e+38 	
1.001071e+06 	1.937800e+04 	9.252446e+08 	1.694690e+00 	4.252239e+38 	
1.001076e+06 	1.916718e+04 	9.229363e+08 	1.713308e+00 	4.252235e+38 	
1.001082e+06 	1.895865e+04 	9.206347e+08 	1.732131e+00 	4.252230e+38 	
1.001087e+06 	1.875239e+04 	9.183397e+08 	1.751161e+00 	4.252226e+38 	
1.001093e+06 	1.854837e+04 	9.160514e+08 	1.770400e+00 	4.252222e+38 	
1.001098e+06 	1.834657e+04 	9.137699e+08 	1.789850e+00 	4.252218e+38 	
1.001103e+06 	1.814697e+04 	9.114949e+08 	1.809514e+00 	4.252214e+38 	
1.001109e+06 	1.794954e+04 	9.092265e+08 	1.829394e+00 	4.252209e+38 	
1.001114e+06 	1.775426e+04 	9.069647e+08 	1.849492e+00 	4.252205e+38 	
1.001119e+06 	1.756110e+04 	9.047094e+08 	1.869812e+00 	4.252201e+38 	
1.001125e+06 	1.737005e+04 	9.024607e+08 	1.890354e+00 	4.252197e+38 	
1.001130e+06 	1.718107e+04 	9.002184e+08 	1.911122e+00 	4.252193e+38 	
1.001136e+06 	1.699415e+04 	8.979826e+08 	1.932119e+00 	4.252188e+38 	
1.001141e+06 	1.680926e+04 	8.957534e+08 	1.953346e+00 	4.252184e+38 	
1.001146e+06 	1.662638e+04 	8.935307e+08 	1.974806e+00 	4.252180e+38 	
1.001152e+06 	1.644550e+04 	8.913144e+08 	1.996502e+00 	4.252176e+38 	
1.001157e+06 	1.626658e+04 	8.891046e+08 	2.018437e+00 	4.252171e+38 	
1.001162e+06 	1.608960e+04 	8.869012e+08 	2.040613e+00 	4.252167e+38 	
1.001168e+06 	1.591456e+04 	8.847041e+08 	2.063032e+00 	4.252163e+38 	
1.001173e+06 	1.574141e+04 	8.825135e+08 	2.085697e+00 	4.252159e+38 	
1.001178e+06 	1.557016e+04 	8.803291e+08 	2.108612e+00 	4.252154e+38 	
1.001184e+06 	1.540076e+04 	8.781511e+08 	2.131778e+00 	4.252150e+38 	
1.001189e+06 	1.523321e+04 	8.759794e+08 	2.155199e+00 	4.252146e+38 	
1.001194e+06 	1.506748e+04 	8.738141e+08 	2.178877e+00 	4.252142e+38 	
1.001199e+06 	1.490355e+04 	8.716552e+08 	2.202816e+00 	4.252137e+38 	
1.001205e+06 	1.474141e+04 	8.695025e+08 	2.227017e+00 	4.252133e+38 	
1.001210e+06 	1.458103e+04 	8.673560e+08 	2.251484e+00 	4.252129e+38 	
1.001215e+06 	1.442239e+04 	8.652158e+08 	2.276220e+00 	4.252125e+38 	
1.001221e+06 	1.426549e+04 	8.630818e+08 	2.301228e+00 	4.252120e+38 	
1.001226e+06 	1.411028e+04 	8.609540e+08 	2.326511e+00 	4.252116e+38 	
1.001231e+06 	1.395677e+04 	8.588324e+08 	2.352071e+00 	4.252112e+38 	
1.001236e+06 	1.380493e+04 	8.567170e+08 	2.377913e+00 	4.252107e+38 	
1.001242e+06 	1.365474e+04 	8.546077e+08 	2.404038e+00 	4.252103e+38 	
1.001247e+06 	1.350618e+04 	8.525047e+08 	2.430450e+00 	4.252099e+38 	
1.001252e+06 	1.335924e+04 	8.504077e+08 	2.457153e+00 	4.252095e+38 	
1.001258e+06 	1.321390e+04 	8.483169e+08 	2.484149e+00 	4.252090e+38 	
1.001263e+06 	1.307014e+04 	8.462321e+08 	2.511441e+00 	4.252086e+38 	
1.001268e+06 	1.292794e+04 	8.441534e+08 	2.539034e+00 	4.252082e+38 	
1.001273e+06 	1.278729e+04 	8.420807e+08 	2.566929e+00 	4.252077e+38 	
1.001279e+06 	1.264817e+04 	8.400141e+08 	2.595131e+00 	4.252073e+38 	
1.001284e+06 	1.251057e+04 	8.379535e+08 	2.623643e+00 	4.252069e+38 	
1.001289e+06 	1.237446e+04 	8.358990e+08 	2.652468e+00 	4.252064e+38 	
1.001294e+06 	1.223983e+04 	8.338505e+08 	2.681610e+00 	4.252060e+38 	
1.001300e+06 	1.210667e+04 	8.318079e+08 	2.711072e+00 	4.252055e+38 	
1.001305e+06 	1.197495e+04 	8.297713e+08 	2.740858e+00 	4.252051e+38 	
1.001310e+06 	1.184467e+04 	8.277407e+08 	2.770971e+00 	4.252047e+38 	
1.001315e+06 	1.171580e+04 	8.257160e+08 	2.801415e+00 	4.252042e+38 	
1.001320e+06 	1.158834e+04 	8.236971e+08 	2.832194e+00 	4.252038e+38 	
1.001326e+06 	1.146227e+04 	8.216842e+08 	2.863310e+00 	4.252034e+38 	
1.001331e+06 	1.133756e+04 	8.196771e+08 	2.894769e+00 	4.252029e+38 	
1.001336e+06 	1.121422e+04 	8.176759e+08 	2.926573e+00 	4.252025e+38 	
1.001341e+06 	1.109221e+04 	8.156806e+08 	2.958727e+00 	4.252020e+38 	
1.001347e+06 	1.097153e+04 	8.136912e+08 	2.991234e+00 	4.252016e+38 	
1.001352e+06 	1.085217e+04 	8.117076e+08 	3.024098e+00 	4.252012e+38 	
1.001357e+06 	1.073410e+04 	8.097298e+08 	3.057323e+00 	4.252007e+38 	
1.001362e+06 	1.061732e+04 	8.077577e+08 	3.090913e+00 	4.252003e+38 	
1.001367e+06 	1.050181e+04 	8.057914e+08 	3.124873e+00 	4.251998e+38 	
1.001372e+06 	1.038755e+04 	8.038308e+08 	3.159205e+00 	4.251994e+38 	
1.001378e+06 	1.027454e+04 	8.018760e+08 	3.193915e+00 	4.251989e+38 	
1.001383e+06 	1.016276e+04 	7.999269e+08 	3.229006e+00 	4.251985e+38 	
1.001388e+06 	1.005220e+04 	7.979836e+08 	3.264482e+00 	4.251981e+38 	
1.001393e+06 	9.942832e+03 	7.960460e+08 	3.300349e+00 	4.251976e+38 	
1.001398e+06 	9.834659e+03 	7.941141e+08 	3.336609e+00 	4.251972e+38 	
1.001404e+06 	9.727663e+03 	7.921878e+08 	3.373268e+00 	4.251967e+38 	
1.001409e+06 	9.621831e+03 	7.902672e+08 	3.410330e+00 	4.251963e+38 	
1.001414e+06 	9.517150e+03 	7.883521e+08 	3.447799e+00 	4.251958e+38 	
1.001419e+06 	9.413608e+03 	7.864427e+08 	3.485680e+00 	4.251954e+38 	
1.001424e+06 	9.311193e+03 	7.845388e+08 	3.523976e+00 	4.251949e+38 	
1.001429e+06 	9.209891e+03 	7.826406e+08 	3.562694e+00 	4.251945e+38 	
1.001435e+06 	9.109692e+03 	7.807480e+08 	3.601837e+00 	4.251940e+38 	
1.001440e+06 	9.010583e+03 	7.788609e+08 	3.641410e+00 	4.251936e+38 	
1.001445e+06 	8.912553e+03 	7.769795e+08 	3.681418e+00 	4.251931e+38 	
1.001450e+06 	8.815588e+03 	7.751035e+08 	3.721866e+00 	4.251927e+38 	
1.001455e+06 	8.719679e+03 	7.732330e+08 	3.762758e+00 	4.251922e+38 	
1.001460e+06 	8.624813e+03 	7.713680e+08 	3.804099e+00 	4.251917e+38 	
1.001465e+06 	8.530980e+03 	7.695085e+08 	3.845894e+00 	4.251913e+38 	
1.001471e+06 	8.438167e+03 	7.676545e+08 	3.888149e+00 	4.251908e+38 	
1.001476e+06 	8.346364e+03 	7.658059e+08 	3.930868e+00 	4.251904e+38 	
1.001481e+06 	8.255559e+03 	7.639628e+08 	3.974056e+00 	4.251899e+38 	
1.001486e+06 	8.165743e+03 	7.621251e+08 	4.017719e+00 	4.251895e+38 	
1.001491e+06 	8.076904e+03 	7.602928e+08 	4.061862e+00 	4.251890e+38 	
1.001496e+06 	7.989031e+03 	7.584660e+08 	4.106489e+00 	4.251885e+38 	
1.001501e+06 	7.902114e+03 	7.566445e+08 	4.151607e+00 	4.251881e+38 	
1.001506e+06 	7.816143e+03 	7.548283e+08 	4.197221e+00 	4.251876e+38 	
1.001512e+06 	7.731107e+03 	7.530175e+08 	4.243336e+00 	4.251872e+38 	
1.001517e+06 	7.646996e+03 	7.512120e+08 	4.289958e+00 	4.251867e+38 	
1.001522e+06 	7.563801e+03 	7.494119e+08 	4.337092e+00 	4.251862e+38 	
1.001527e+06 	7.481510e+03 	7.476171e+08 	4.384743e+00 	4.251858e+38 	
1.001532e+06 	7.400115e+03 	7.458276e+08 	4.432919e+00 	4.251853e+38 	
1.001537e+06 	7.319606e+03 	7.440434e+08 	4.481623e+00 	4.251848e+38 	
1.001542e+06 	7.239972e+03 	7.422645e+08 	4.530863e+00 	4.251844e+38 	
1.001547e+06 	7.161205e+03 	7.404908e+08 	4.580644e+00 	4.251839e+38 	
1.001552e+06 	7.083294e+03 	7.387224e+08 	4.630972e+00 	4.251834e+38 	
1.001557e+06 	7.006231e+03 	7.369591e+08 	4.681852e+00 	4.251830e+38 	
1.001563e+06 	6.930007e+03 	7.352011e+08 	4.733292e+00 	4.251825e+38 	
1.001568e+06 	6.854612e+03 	7.334482e+08 	4.785297e+00 	4.251820e+38 	
1.001573e+06 	6.780037e+03 	7.317005e+08 	4.837874e+00 	4.251816e+38 	
1.001578e+06 	6.706274e+03 	7.299581e+08 	4.891028e+00 	4.251811e+38 	
1.001583e+06 	6.633313e+03 	7.282209e+08 	4.944766e+00 	4.251806e+38 	
1.001588e+06 	6.561146e+03 	7.264887e+08 	4.999094e+00 	4.251802e+38 	
